# wavelength [m]	effective refractive index	transmission [dB/m]	effective mode area [m]	effective refractive index	transmission [dB/m]	effective mode area [m]	
5.500000000000095572e-07	2.001272799431677907e+00	2.706963631277369594e-10	8.268150361949476639e-13	2.004126428954879913e+00	-2.201810331338272550e-10	8.288150443427940211e-13
5.600000000000094614e-07	1.998610246858605999e+00	4.576495647252794555e-10	8.306856702481053649e-13	2.001606296453140921e+00	4.910741190648194980e-11	8.320362770075954451e-13
5.700000000000093657e-07	1.996024727175748970e+00	9.985311973496742684e-10	8.346005218305494388e-13	1.999167100181713952e+00	1.797843912231408173e-10	8.352713542857734132e-13
5.800000000000092699e-07	1.993509680552340013e+00	-3.421891907012484590e-10	8.385602969806850289e-13	1.996802292885436980e+00	-2.278069347397239830e-10	8.385207126376599921e-13
5.900000000000091742e-07	1.991059156785546902e+00	-3.993786311100737121e-10	8.425656916214150307e-13	1.994505935516142081e+00	-2.638520489503263168e-10	8.417847726097565095e-13
6.000000000000090785e-07	1.988667748980569971e+00	-4.637619544209018979e-10	8.466173925855906061e-13	1.992272630933455968e+00	-3.042486908543522187e-10	8.450639403471399033e-13
6.100000000000089827e-07	1.986330535575896006e+00	-5.357041585801882606e-10	8.507160785418894280e-13	1.990097465950241062e+00	-3.493864487484418970e-10	8.483586089628424539e-13
6.200000000000088870e-07	1.984043029524493074e+00	-6.158383245701904385e-10	8.548624208249058639e-13	1.987975960533493902e+00	-3.993911673671400937e-10	8.516691597624476472e-13
6.300000000000087912e-07	1.981801133630656020e+00	-2.338858622803865152e-09	8.590570841834105611e-13	1.985904023160411036e+00	9.952052320209205684e-11	8.549959633453968459e-13
6.400000000000086955e-07	1.979601101197876911e+00	-2.683478401070345893e-09	8.633007274502821264e-13	1.983877911485036005e+00	1.244946759302449827e-10	8.583393806089636031e-13
6.500000000000085997e-07	1.977439501272328037e+00	-3.061173647162670837e-09	8.675940041532312734e-13	1.981894197600092999e+00	1.548054168579732605e-10	8.616997636360296967e-13
6.600000000000085040e-07	1.975313187873956045e+00	-3.470355631587054956e-09	8.719375630583874293e-13	1.979949737286005984e+00	1.917333728606915099e-10	8.650774565185475697e-13
6.700000000000084082e-07	1.973219272696784987e+00	-3.908185374288307965e-09	8.763320486633144346e-13	1.978041642728741945e+00	2.361204018164863305e-10	8.684727960957678256e-13
6.800000000000083125e-07	1.971155100835233043e+00	-4.368910179767579554e-09	8.807781016406315849e-13	1.976167258263278992e+00	2.893069189035489755e-10	8.718861126274585271e-13
6.900000000000082168e-07	1.969118229156320066e+00	-4.845221892318724038e-09	8.852763592374397822e-13	1.974324138762610925e+00	3.528001679516567790e-10	8.753177304074433935e-13
7.000000000000081210e-07	1.967106406990942968e+00	-5.325437684675233684e-09	8.898274556347328234e-13	1.972510030345469900e+00	4.280611050720420847e-10	8.787679683237450450e-13
7.100000000000080253e-07	1.965117558862331970e+00	-5.795779728141616180e-09	8.944320222703742710e-13	1.970722853120898010e+00	5.173462565355596250e-10	8.822371403709987543e-13
7.200000000000079295e-07	1.963149769008138978e+00	-6.238369873622780053e-09	8.990906881288321043e-13	1.968960685726139914e+00	6.214425135539394091e-10	8.857255561200354691e-13
7.300000000000078338e-07	1.961201267484973032e+00	-6.630962532914033968e-09	9.038040800006539276e-13	1.967221751446668110e+00	7.432428585252822740e-10	8.892335211490496054e-13
7.400000000000077380e-07	1.959270417671989062e+00	-6.948682878962207669e-09	9.085728227140879423e-13	1.965504405734991966e+00	8.838716972738708777e-10	8.927613374401968100e-13
7.500000000000076423e-07	1.957355705013885006e+00	-7.162840723082292875e-09	9.133975393412884104e-13	1.963807124968576900e+00	1.044734054916306631e-09	8.963093037450045305e-13
7.600000000000075466e-07	1.955455726863863930e+00	-7.241423286298304282e-09	9.182788513810553218e-13	1.962128496307492975e+00	1.226478923835148293e-09	8.998777159217780984e-13
7.700000000000074508e-07	1.953569183304820989e+00	-7.153176715360300282e-09	9.232173789199371074e-13	1.960467208530008110e+00	1.430189243772357314e-09	9.034668672475465729e-13
7.800000000000073551e-07	1.951694868841812092e+00	1.976064163895173467e-09	9.282137407585625862e-13	1.958822043739254060e+00	4.133363066459078139e-09	9.070770487316811210e-13
7.900000000000072593e-07	1.949831664872123893e+00	-2.349612802716672661e-09	9.332685545893322248e-13	1.957191869847245025e+00	4.790445193891274336e-09	9.107085492692293830e-13
8.000000000000071636e-07	1.947978532850376920e+00	-3.176354848505443030e-09	9.383824370275175841e-13	1.955575633753726894e+00	5.557095172162490791e-09	9.143616561048500987e-13
8.100000000000070678e-07	1.946134508075914926e+00	-4.013360713851328885e-09	9.435560037430655624e-13	1.953972355147103990e+00	6.372856419443206977e-09	9.180366548651264660e-13
8.200000000000069721e-07	1.944298694038246955e+00	6.376375250363495415e-09	9.487898695142661802e-13	1.952381120863216024e+00	2.240477933458393113e-09	9.217338298712681804e-13
8.300000000000068763e-07	1.942470257263660960e+00	-3.165250869182967851e-08	9.540846482797561093e-13	1.950801079745134947e+00	3.360489017472705502e-08	9.254534642784296728e-13
8.400000000000067806e-07	1.940648422612718083e+00	-3.351705370245812985e-08	9.594409533575236248e-13	1.949231437953582002e+00	3.936054997073270188e-08	9.291958404161765186e-13
8.500000000000066849e-07	1.938832468983745949e+00	-3.520567838138905275e-08	9.648593971626681589e-13	1.947671454683324033e+00	4.562096285801818685e-08	9.329612397589331182e-13
8.600000000000065891e-07	1.937021725382719106e+00	-3.668329278026776433e-08	9.703405914609592293e-13	1.946120438245662942e+00	5.236133693986203689e-08	9.367499432237705446e-13
8.700000000000064934e-07	1.935215567324001018e+00	-3.790939707358488516e-08	9.758851473239225106e-13	1.944577742481709004e+00	5.954153401243964009e-08	9.405622312962868324e-13
8.800000000000063976e-07	1.933413413530409963e+00	1.733314622699478523e-07	9.814936753185358157e-13	1.943042763474744028e+00	-6.378399618101392793e-08	9.443983839567617213e-13
8.900000000000063019e-07	1.931614722904265058e+00	5.903153599183342824e-07	9.871667846335541068e-13	1.941514936533766056e+00	-2.707581283948071631e-09	9.482586819273679108e-13
9.000000000000062061e-07	1.929818991744082002e+00	6.790340553654142008e-07	9.929050846746756076e-13	1.939993733422094024e+00	-3.943043401417051288e-09	9.521434045947208865e-13
9.100000000000061104e-07	1.928025751185052039e+00	7.812594787107284135e-07	9.987091835637112378e-13	1.938478659809816929e+00	-5.371121734131988028e-09	9.560528323419361347e-13
9.200000000000060147e-07	1.926234564841597940e+00	9.000625359326821775e-07	1.004579688780360445e-12	1.936969252928399055e+00	-7.026754348616243569e-09	9.599872455654821711e-13
9.300000000000059189e-07	1.924445026634773903e+00	3.835886253843308476e-08	1.010517207174105564e-12	1.935465079409991906e+00	-2.972785724662588485e-07	9.639469247236099871e-13
9.400000000000058232e-07	1.922656758788797049e+00	4.203409770166986997e-08	1.016522344275313543e-12	1.933965733295117007e+00	-2.899658815166694869e-07	9.679321515789833069e-13
9.500000000000057274e-07	1.920869409978988029e+00	4.602959372467600247e-08	1.022595705159269719e-12	1.932470834193033005e+00	-2.778923648759181022e-07	9.719432076081241688e-13
9.600000000000056317e-07	1.919082653621744017e+00	5.040617556081489059e-08	1.028737893806798099e-12	1.930980025582764936e+00	-2.606337633141723191e-07	9.759803752227459073e-13
9.700000000000055359e-07	1.917296186291622906e+00	1.732218654934193508e-07	1.034949513201611596e-12	1.929492973241867082e+00	3.710558592934537726e-08	9.800439379804446987e-13
9.800000000000054402e-07	1.915509726255703038e+00	1.953103849893162281e-07	1.041231165171753455e-12	1.928009363791900022e+00	3.961858085457693773e-08	9.841341791049875457e-13
9.900000000000053444e-07	1.913723012115359889e+00	2.203895450286594862e-07	1.047583450447103478e-12	1.926528903352020095e+00	4.233206909997583177e-08	9.882513839101705865e-13
1.000000000000005249e-06	1.911935801546305047e+00	2.490694398326648029e-07	1.054006968491940991e-12	1.925051316290026904e+00	4.532194612897502990e-08	9.923958383362938492e-13
1.010000000000005153e-06	1.910147870128952929e+00	2.820868193239617352e-07	1.060502317442056301e-12	1.923576344064074961e+00	4.866437934509660488e-08	9.965678294144696849e-13
1.020000000000005057e-06	1.908359010261696964e+00	3.203234306226319501e-07	1.067070094015736083e-12	1.922103744147158899e+00	5.246170317704219259e-08	1.000767645344165295e-12
1.030000000000004961e-06	1.906569030150395916e+00	3.648045676824609911e-07	1.073710893420649423e-12	1.920633289027803947e+00	5.684352516208381769e-08	1.004995575568056925e-12
1.040000000000004866e-06	1.904777752868020979e+00	4.167487871686854633e-07	1.080425309256790004e-12	1.919164765280858997e+00	6.196441831019090900e-08	1.009251910844566085e-12
1.050000000000004770e-06	1.902985015478902975e+00	4.775774890209207237e-07	1.087213933415868649e-12	1.917697972702886000e+00	6.800791245498595220e-08	1.013536943318057021e-12
1.060000000000004674e-06	1.901190668222497049e+00	5.489287680119253871e-07	1.094077355977315153e-12	1.916232723507031999e+00	7.520505948528116956e-08	1.017850966587091834e-12
1.070000000000004578e-06	1.899394573752084092e+00	6.327030871305610983e-07	1.101016165101337920e-12	1.914768841572840996e+00	8.381575335718891507e-08	1.022194275770679848e-12
1.080000000000004483e-06	1.897596606423952004e+00	-3.115353720936677516e-08	1.108030948958844180e-12	1.913306161746787915e+00	3.493380968057581487e-07	1.026567167664885568e-12
1.090000000000004387e-06	1.895796651634590990e+00	3.573444536059539923e-08	1.115122287660887948e-12	1.911844529189506980e+00	3.974125565346736832e-07	1.030969940442541713e-12
1.100000000000004291e-06	1.893994605198882963e+00	1.315812609436457194e-07	1.122290764801445164e-12	1.910383798766636998e+00	4.519717894026273916e-07	1.035402894251791130e-12
1.110000000000004196e-06	1.892190372770679030e+00	2.635480058534051399e-07	1.129536959742645243e-12	1.908923834479453019e+00	5.137484824087485109e-07	1.039866330922913473e-12
1.120000000000004100e-06	1.890383869299385955e+00	4.397600239976789141e-07	1.136861449354875149e-12	1.907464508932815050e+00	5.835023410001334331e-07	1.044360554114094978e-12
1.130000000000004004e-06	1.888575018521138071e+00	6.692219361981812928e-07	1.144264807896626158e-12	1.906005702837449078e+00	6.619721099151530491e-07	1.048885869368873093e-12
1.140000000000003908e-06	1.886763752481898981e+00	9.616720101478721996e-07	1.151747606893009179e-12	1.904547304544178088e+00	7.499038404971023201e-07	1.053442584172550352e-12
1.150000000000003813e-06	1.884950011090158029e+00	1.327285134564862185e-06	1.159310415013315863e-12	1.903089209607770949e+00	8.479870888565370109e-07	1.058031008007543789e-12
1.160000000000003717e-06	1.883133741697109009e+00	1.776322454276235412e-06	1.166953797947888657e-12	1.901631320378295964e+00	9.568683711196423829e-07	1.062651452407775492e-12
1.170000000000003621e-06	1.881314898702385996e+00	2.318648911699643067e-06	1.174678318284472443e-12	1.900173545618057069e+00	1.077098357822889437e-06	1.067304231012220839e-12
1.180000000000003525e-06	1.879493443183531953e+00	2.963198667586326152e-06	1.182484535384484190e-12	1.898715800142299903e+00	1.209185477002699224e-06	1.071989659617688516e-12
1.190000000000003430e-06	1.877669342547582998e+00	3.717344557268691689e-06	1.190373005259439124e-12	1.897258004482063942e+00	1.353553430754434771e-06	1.076708056230746697e-12
1.200000000000003334e-06	1.875842570203196891e+00	4.586387129129403808e-06	1.198344280447789265e-12	1.895800084567613952e+00	1.510599118507010805e-06	1.081459741119122751e-12
1.210000000000003238e-06	1.874013105251969957e+00	5.572956977826046801e-06	1.206398909892490801e-12	1.894341971431108940e+00	1.680699574385065199e-06	1.086245036862340182e-12
1.220000000000003142e-06	1.872180932197585079e+00	6.676667781777587125e-06	1.214537438819609882e-12	1.892883600927137921e+00	1.864317881170231438e-06	1.091064268401887257e-12
1.230000000000003047e-06	1.870346040671637011e+00	7.893846895304851486e-06	1.222760408618178880e-12	1.891424913469984093e+00	2.062056593986355579e-06	1.095917763090785238e-12
1.240000000000002951e-06	1.868508425174983945e+00	9.217535126186806333e-06	1.231068356721606832e-12	1.889965853786466088e+00	2.274711076210654504e-06	1.100805850742708285e-12
1.250000000000002855e-06	1.866668084833599917e+00	1.063763295876052879e-05	1.239461816490951260e-12	1.888506370683322944e+00	2.503400358564839115e-06	1.105728863680637478e-12
1.260000000000002759e-06	1.864825023168001028e+00	1.214120432043962906e-05	1.247941317100194110e-12	1.887046416828237039e+00	2.749567944208504442e-06	1.110687136785137781e-12
1.270000000000002664e-06	1.862979247875309108e+00	1.371304528774445672e-05	1.256507383423974808e-12	1.885585948543551105e+00	3.015148927395725609e-06	1.115681007542196797e-12
1.280000000000002568e-06	1.861130770620692987e+00	-2.541336365456720221e-05	1.265160524768315044e-12	1.884124925610112022e+00	-2.048465397453232278e-05	1.120710797317400802e-12
1.290000000000002472e-06	1.859279606852054068e+00	-2.792248642867186252e-05	1.273901278922029803e-12	1.882663311091200997e+00	-2.022434125651533676e-05	1.125776886670894108e-12
1.300000000000002376e-06	1.857425775601204920e+00	-3.056382264653950378e-05	1.282730146568498596e-12	1.881201071148911108e+00	-1.985290826046346764e-05	1.130879602264628762e-12
1.310000000000002281e-06	1.855569299318166054e+00	-3.333754911863445671e-05	1.291647634321672904e-12	1.879738174888369029e+00	-1.935220285321569107e-05	1.136019292483634179e-12
1.320000000000002185e-06	1.853710203703077042e+00	-3.624587846654829981e-05	1.300654243979707554e-12	1.878274594202034020e+00	-1.870643807062874958e-05	1.141196308550762396e-12
1.330000000000002089e-06	1.851848517548901008e+00	-3.929325464742038315e-05	1.309750472433322193e-12	1.876810303624431020e+00	-1.790148103375946643e-05	1.146411004573587156e-12
1.340000000000001993e-06	1.849984272592096080e+00	-4.248661101407123406e-05	1.318936811578818076e-12	1.875345280194913977e+00	-1.692411862301009895e-05	1.151663737591031972e-12
1.350000000000001898e-06	1.848117503370803050e+00	-4.583542900501273856e-05	1.328213748235913949e-12	1.873879503328022000e+00	-1.576154256428615274e-05	1.156954867619724352e-12
1.360000000000001802e-06	1.846248247090078953e+00	-4.935164628943428474e-05	1.337581764070891360e-12	1.872412954690948039e+00	-1.440060674249320180e-05	1.162284757700223400e-12
1.370000000000001706e-06	1.844376543493696063e+00	-5.304956954990851719e-05	1.347041335525190549e-12	1.870945618087652029e+00	-1.282744626887750487e-05	1.167653773942997004e-12
1.380000000000001610e-06	1.842502434742204098e+00	-5.694560087928265512e-05	1.356592933749895568e-12	1.869477479349294979e+00	-1.102685113570476500e-05	1.173062285574320262e-12
1.390000000000001515e-06	1.840625965296774025e+00	-6.105790719949247074e-05	1.366237024546412140e-12	1.868008526230539923e+00	-8.981847184766310051e-06	1.178510664981931772e-12
1.400000000000001419e-06	1.838747181808549014e+00	-6.540608141419295004e-05	1.375974068313503464e-12	1.866538748311437956e+00	-6.673415825546512904e-06	1.183999287760710523e-12
1.410000000000001323e-06	1.836866133013145941e+00	-7.001057742295562999e-05	1.385804520001249006e-12	1.865068136904517004e+00	-4.080068030212229591e-06	1.189528532758174865e-12
1.420000000000001227e-06	1.834982869629991020e+00	-7.489235795245681980e-05	1.395728829071925892e-12	1.863596684966805972e+00	-1.177677644203347171e-06	1.195098782119930189e-12
1.430000000000001132e-06	1.833097444266241993e+00	-8.007223050174837320e-05	1.405747439468368233e-12	1.862124387016494076e+00	2.060953692222055604e-06	1.200710421335099236e-12
1.440000000000001036e-06	1.831209911324984008e+00	-8.557027310516568874e-05	1.415860789589993630e-12	1.860651239053962014e+00	5.666030854376608585e-06	1.206363839281687379e-12
1.450000000000000940e-06	1.829320326917486028e+00	-9.140529470669822337e-05	1.426069312276741214e-12	1.859177238486926953e+00	9.671258515367733868e-06	1.212059428271956997e-12
1.460000000000000844e-06	1.827428748779251100e+00	-9.759399287368383520e-05	1.436373434801216454e-12	1.857702384059471079e+00	1.411389167664237069e-05	1.217797584097759230e-12
1.470000000000000749e-06	1.825535236189681054e+00	-1.041506542777276018e-04	1.446773578869559132e-12	1.856226675784742097e+00	1.903498439261252001e-05	1.223578706075941472e-12
1.480000000000000653e-06	1.823639849895106968e+00	-1.110861640750186675e-04	1.457270160630721058e-12	1.854750114881108081e+00	2.447965402456624883e-05	1.229403197093717903e-12
1.490000000000000557e-06	1.821742652035021948e+00	-1.184075640269338479e-04	1.467863590695242619e-12	1.853272703711569047e+00	3.049741271426907756e-05	1.235271463654066681e-12
1.500000000000000462e-06	1.819843706071325951e+00	-1.261175830017180000e-04	1.478554274162903358e-12	1.851794445726268945e+00	3.714231894827651966e-05	1.241183915921233357e-12
1.510000000000000366e-06	1.817943076720414997e+00	-1.342138952012983952e-04	1.489342610660175114e-12	1.850315345407911094e+00	4.447345793426332348e-05	1.247140967766153913e-12
1.520000000000000270e-06	1.816040829887948904e+00	-1.426892040087787716e-04	1.500228994387344464e-12	1.848835408219918097e+00	5.255518936761420100e-05	1.253143036812033911e-12
1.530000000000000174e-06	1.814137032606164102e+00	-1.515308859784579511e-04	1.511213814175572430e-12	1.847354640557210104e+00	6.145748226338134735e-05	1.259190544479900982e-12
1.540000000000000079e-06	1.812231752973568977e+00	-1.607213976803435794e-04	1.522297453554174593e-12	1.845873049699428892e+00	7.125613643181751391e-05	1.265283916034251420e-12
1.549999999999999983e-06	1.810325060098163075e+00	-1.167502536157384824e-04	1.533480293173371317e-12	1.844390643765035920e+00	6.788415436125442627e-05	1.271423591133338233e-12
1.559999999999999887e-06	1.808417024036077070e+00	-1.307462748060058029e-04	1.544762701524721381e-12	1.842907431674593921e+00	7.425204824333829956e-05	1.277609981334912266e-12
1.569999999999999791e-06	1.806507715746509923e+00	-1.461014051936698386e-04	1.556145049057447643e-12	1.841423423102797940e+00	8.114960882324022710e-05	1.283843534734103046e-12
1.579999999999999696e-06	1.804597207033546979e+00	-1.629308726797293566e-04	1.567627698974985836e-12	1.839938628445207947e+00	8.860102092109658893e-05	1.290124692427658534e-12
1.589999999999999600e-06	1.802685570497650103e+00	-1.813629881680106507e-04	1.579211009673835930e-12	1.838453058780773031e+00	9.662673085004856385e-05	1.296453899583905760e-12
1.599999999999999504e-06	1.800772879487231970e+00	-2.015401965911967162e-04	1.590895334875482287e-12	1.836966725837287040e+00	1.052459148494012714e-04	1.302831605489188445e-12
1.609999999999999408e-06	1.798859208051867054e+00	-2.236184059586118051e-04	1.602681023769586589e-12	1.835479641958535968e+00	1.144775908250413791e-04	1.309258263594284042e-12
1.619999999999999313e-06	1.796944630897028050e+00	-2.477667487760502364e-04	1.614568421168250961e-12	1.833991820073004098e+00	1.243410243835594425e-04	1.315734331560574983e-12
1.629999999999999217e-06	1.795029223340284030e+00	-2.741664956834680708e-04	1.626557867671727935e-12	1.832503273664104926e+00	1.348565121982822526e-04	1.322260271306139368e-12
1.639999999999999121e-06	1.793113061268905017e+00	-3.030087487612241485e-04	1.638649699845291698e-12	1.831014016741856931e+00	1.460464543542633776e-04	1.328836549051898595e-12
1.649999999999999025e-06	1.791196221098749097e+00	-3.344909055113260820e-04	1.650844250407684620e-12	1.829524063815870960e+00	1.579366063913718898e-04	1.335463635367940079e-12
1.659999999999998930e-06	1.789278779734438940e+00	-3.688112804859510103e-04	1.663141848430779790e-12	1.828033429869670101e+00	1.705581166493638496e-04	1.342142005219664073e-12
