# wavelength [m]	effective refractive index	transmission [dB/m]	effective mode area [m]	effective refractive index	transmission [dB/m]	effective mode area [m]	
5.500000000000095572e-07	1.993715180783687035e+00	-3.384789407602169509e-13	5.055492006793345426e-13	1.995616502559562910e+00	2.186130366675751825e-12	5.039857580668321697e-13
5.600000000000094614e-07	1.990802624467449933e+00	-4.517874180802385231e-13	5.083591361056303390e-13	1.992797713518585034e+00	3.314393502542383211e-12	5.065014772863320153e-13
5.700000000000093657e-07	1.987964183742171098e+00	-6.880476473858248584e-13	5.112009860647567657e-13	1.990055492889154065e+00	4.862139086358952003e-12	5.090370132579357523e-13
5.800000000000092699e-07	1.985193339575175964e+00	-8.780201582968566266e-13	5.140753545256611447e-13	1.987383323570617089e+00	8.338539603278267725e-12	5.115928387597203083e-13
5.900000000000091742e-07	1.982484182272755024e+00	-1.109458750269698528e-12	5.169828402704498194e-13	1.984775296761905006e+00	1.576771840558417239e-11	5.141694184128637066e-13
6.000000000000090785e-07	1.979831345169783097e+00	-1.427686814232376237e-12	5.199240377667213979e-13	1.982226045663602942e+00	3.623942619292133146e-11	5.167672097524168387e-13
6.100000000000089827e-07	1.977229946665133964e+00	-1.776773357124794823e-12	5.228995379566044645e-13	1.979730687525601107e+00	1.993409522439878950e-10	5.193866641939504438e-13
6.200000000000088870e-07	1.974675539413534908e+00	-2.204934752274650448e-12	5.259099289718479490e-13	1.977284772850937955e+00	-1.132240986681637459e-10	5.220282279079672096e-13
6.300000000000087912e-07	1.972164065673507993e+00	-1.310521027046114993e-12	5.289557967832478753e-13	1.974884240755492071e+00	1.513994122488634477e-13	5.246923426148085069e-13
6.400000000000086955e-07	1.969691817966646052e+00	-1.639838856874174369e-12	5.320377257915005951e-13	1.972525379638774057e+00	-1.741575404595585774e-12	5.273794463054115326e-13
6.500000000000085997e-07	1.967255404332793001e+00	-1.635981547007959839e-12	5.351562993657801654e-13	1.970204792450360065e+00	-2.100305222153566937e-12	5.300899739010078601e-13
6.600000000000085040e-07	1.964851717573016021e+00	-1.643696166740388899e-12	5.383121003354451199e-13	1.967919365943904930e+00	-2.288349078131553439e-12	5.328243578550721214e-13
6.700000000000084082e-07	1.962477907961950985e+00	-1.883813705912254791e-12	5.415057114397381578e-13	1.965666243400268964e+00	-2.663954626354272799e-12	5.355830287055547309e-13
6.800000000000083125e-07	1.960131358986257011e+00	-1.805703181121405412e-12	5.447377157397108802e-13	1.963442800376542063e+00	-3.291731807080892609e-12	5.383664155824265607e-13
6.900000000000082168e-07	1.957809665729046911e+00	-1.714092071798805987e-12	5.480086969960111714e-13	1.961246623100816100e+00	-3.716035892364682338e-12	5.411749466752968032e-13
7.000000000000081210e-07	1.955510615573408995e+00	-1.079564598806539052e-12	5.513192400159554406e-13	1.959075489185825081e+00	-3.476400516924739349e-13	5.440090496654618648e-13
7.100000000000080253e-07	1.953232170943123069e+00	-1.480724824892824710e-12	5.546699309726720073e-13	1.956927350379588981e+00	-2.309564282395183851e-13	5.468691521259971389e-13
7.200000000000079295e-07	1.950972453836997023e+00	-1.648999967806434029e-12	5.580613576989588317e-13	1.954800317109468111e+00	-3.881418052877153910e-13	5.497556818932925695e-13
7.300000000000078338e-07	1.948729731945600951e+00	-5.129257794599962851e-12	5.614941099581360916e-13	1.952692644608422956e+00	1.809078327253589808e-12	5.526690674128596867e-13
7.400000000000077380e-07	1.946502406167009980e+00	-6.619143730426806999e-12	5.649687796939419691e-13	1.950602720440117066e+00	2.258454926667211151e-12	5.556097380620877472e-13
7.500000000000076423e-07	1.944288999361867942e+00	-8.531405096605310839e-12	5.684859612612138560e-13	1.948529053263162947e+00	2.657686497820046029e-12	5.585781244522095923e-13
7.600000000000075466e-07	1.942088146208351906e+00	-1.051020505797699366e-11	5.720462516390983970e-13	1.946470262695098041e+00	3.376110460401745814e-12	5.615746587115179086e-13
7.700000000000074508e-07	1.939898584035236961e+00	5.419520362029135435e-13	5.756502506281193949e-13	1.944425070154321089e+00	-1.700302189030084109e-11	5.645997747516555897e-13
7.800000000000073551e-07	1.937719144526137915e+00	-3.129242628965529609e-13	5.792985610324371433e-13	1.942392290573067060e+00	-1.601458623707996650e-11	5.676539085188278223e-13
7.900000000000072593e-07	1.935548746201247061e+00	-1.264715472384820127e-12	5.829917888285279406e-13	1.940370824887732937e+00	-1.401360674397497620e-11	5.707374982308015492e-13
8.000000000000071636e-07	1.933386387593946987e+00	-2.497125974640454700e-12	5.867305433212159812e-13	1.938359653223967083e+00	-1.062351353529728009e-11	5.738509846018224621e-13
8.100000000000070678e-07	1.931231141049593036e+00	-5.042950486343342518e-12	5.905154372880572669e-13	1.936357828703809014e+00	-4.733883533312667186e-12	5.769948110559843821e-13
8.200000000000069721e-07	1.929082147082183063e+00	-2.375042117380584883e-11	5.943470871129018107e-13	1.934364471810624986e+00	-3.336573034274502022e-13	5.801694239304597210e-13
8.300000000000068763e-07	1.926938609232077049e+00	-2.783000852108375866e-11	5.982261129094981695e-13	1.932378765254981090e+00	6.567070047227388567e-13	5.833752726690501520e-13
8.400000000000067806e-07	1.924799789374370018e+00	-3.349880753325728169e-11	6.021531386355645992e-13	1.930399949291101036e+00	1.703002305932771017e-12	5.866128100079962960e-13
8.500000000000066849e-07	1.922665003433208009e+00	-4.142123983479415289e-11	6.061287921983107242e-13	1.928427317439191935e+00	4.433977691209751095e-12	5.898824921533672700e-13
8.600000000000065891e-07	1.920533617462212961e+00	-5.170338144702881105e-11	6.101537055516968926e-13	1.926460212573805064e+00	8.740664156830199156e-12	5.931847789518299640e-13
8.700000000000064934e-07	1.918405044055659037e+00	-9.608944607829874987e-11	6.142285147860799764e-13	1.924498023342896103e+00	8.080003409428173771e-11	5.965201340549793948e-13
8.800000000000063976e-07	1.916278739058725034e+00	-1.364523365194337354e-10	6.183538602106796025e-13	1.922540180885919048e+00	1.700687919980077754e-10	5.998890250779779529e-13
8.900000000000063019e-07	1.914154198548640107e+00	-1.528237239196541373e-10	6.225303864293204125e-13	1.920586155822767038e+00	1.291118758399673099e-10	6.032919237526588394e-13
9.000000000000062061e-07	1.912030956061415043e+00	-2.257818470598562960e-10	6.267587424098716124e-13	1.918635455488276964e+00	1.969899218806382285e-10	6.067293060762268259e-13
9.100000000000061104e-07	1.909908580041570936e+00	-3.292942038175009812e-10	6.310395815475985875e-13	1.916687621389707941e+00	2.950610608960853049e-10	6.102016524552503869e-13
9.200000000000060147e-07	1.907786671494487996e+00	-4.760243424869202427e-10	6.353735617230125338e-13	1.914742226866827046e+00	4.334748394687352439e-10	6.137094478458895125e-13
9.300000000000059189e-07	1.905664861823215039e+00	-6.831859905168777841e-10	6.397613453543124163e-13	1.912798874936455951e+00	6.276354245432541358e-10	6.172531818904142354e-13
9.400000000000058232e-07	1.903542810833225962e+00	-9.713077510285504280e-10	6.442035994448402155e-13	1.910857196304964090e+00	8.956085268668864829e-10	6.208333490504881458e-13
9.500000000000057274e-07	1.901420204890430066e+00	-1.367682984332418858e-09	6.487009956257570659e-13	1.908916847534037897e+00	1.267346157528476797e-09	6.244504487374006685e-13
9.600000000000056317e-07	1.899296755219012978e+00	-1.910708317210598779e-09	6.532542101942387647e-13	1.906977509346297950e+00	1.770465690804828144e-09	6.281049854396412948e-13
9.700000000000055359e-07	1.897172196327143068e+00	-2.644340206488807202e-09	6.578639241473884605e-13	1.905038885058804921e+00	2.450001219313146932e-09	6.317974688479684432e-13
9.800000000000054402e-07	1.895046284549569915e+00	-3.631666883832784682e-09	6.625308232121541967e-13	1.903100699133513096e+00	3.357191318539158250e-09	6.355284139782620372e-13
9.900000000000053444e-07	1.892918796697349970e+00	-4.948088149783143695e-09	6.672555978714032765e-13	1.901162695834875960e+00	4.563318110266036560e-09	6.392983412923216620e-13
1.000000000000005249e-06	1.890789528805677078e+00	-6.686910883954306945e-09	6.720389433864322378e-13	1.899224637985629016e+00	6.148022506612944628e-09	6.431077768168619279e-13
1.010000000000005153e-06	1.888658294971790053e+00	-8.966984107876493254e-09	6.768815598160587521e-13	1.897286305812702967e+00	8.220200221793775025e-09	6.469572522608401444e-13
1.020000000000005057e-06	1.886524926275545910e+00	-1.193788610263904780e-08	6.817841520325214243e-13	1.895347495875866040e+00	1.090288015298650493e-08	6.508473051312840219e-13
1.030000000000004961e-06	1.884389269775978981e+00	-1.577938245715039955e-08	6.867474297343708662e-13	1.893408020072443909e+00	1.435555531121116612e-08	6.547784788478046898e-13
1.040000000000004866e-06	1.882251187577770990e+00	-2.071614942040026542e-08	6.917721074565755974e-13	1.891467704712024078e+00	1.876776618602233638e-08	6.587513228559115547e-13
1.050000000000004770e-06	1.880110555962090979e+00	-2.718927327504664983e-08	6.968589045779415284e-13	1.889526389655620031e+00	2.462750200725776605e-08	6.627663927392348198e-13
1.060000000000004674e-06	1.877967264576688056e+00	-3.521317458101107490e-08	7.020085453261307823e-13	1.887583927514201898e+00	3.172398296594620297e-08	6.668242503308577146e-13
1.070000000000004578e-06	1.875821215680689047e+00	-4.534685662715645825e-08	7.072217587803956715e-13	1.885640182902017958e+00	4.062919892317022058e-08	6.709254638237534877e-13
1.080000000000004483e-06	1.873672323439846021e+00	-5.807857482463638035e-08	7.124992788722581538e-13	1.883695031740493020e+00	5.174912208312919141e-08	6.750706078805650573e-13
1.090000000000004387e-06	1.871520513268351893e+00	-7.401061873014356929e-08	7.178418443842836011e-13	1.881748360608813009e+00	6.556785541734120507e-08	6.792602637427093464e-13
1.100000000000004291e-06	1.869365721213759102e+00	-9.386713371193149203e-08	7.232501989471497209e-13	1.879800066137732983e+00	8.266598959816472167e-08	6.834950193389781607e-13
1.110000000000004196e-06	1.867207893381662931e+00	-1.185234336208915924e-07	7.287250910352082353e-13	1.877850054443293892e+00	1.037429724969103389e-07	6.877754693936699405e-13
1.120000000000004100e-06	1.865046985397297963e+00	-1.490399470595957917e-07	7.342672739607337949e-13	1.875898240597581923e+00	1.296313108257364916e-07	6.921022155343719394e-13
1.130000000000004004e-06	1.862882961901205947e+00	-1.866884533771382295e-07	7.398775058670363266e-13	1.873944548133712917e+00	1.613227844027453517e-07	6.964758663994385723e-13
1.140000000000003908e-06	1.860715796076567896e+00	-2.330086998109827871e-07	7.455565497206715816e-13	1.871988908582626010e+00	2.000052766921678938e-07	7.008970377452552940e-13
1.150000000000003813e-06	1.858545469205828082e+00	-2.898270848908161387e-07	7.513051733029155810e-13	1.870031261039345027e+00	2.470833940281601294e-07	7.053663525533511170e-13
1.160000000000003717e-06	1.856371970254542036e+00	-3.593336431735885057e-07	7.571241492007549908e-13	1.868071551756602000e+00	3.042193135242134475e-07	7.098844411374300480e-13
1.170000000000003621e-06	1.854195295480467909e+00	-4.441103444834058867e-07	7.630142547975778068e-13	1.866109733763906098e+00	3.733806792358791944e-07	7.144519412503408282e-13
1.180000000000003525e-06	1.852015448066113956e+00	-5.471897641997887703e-07	7.689762722637974956e-13	1.864145766510217905e+00	4.568635444023001719e-07	7.190694981911434072e-13
1.190000000000003430e-06	1.849832437773093030e+00	-6.721008161754553428e-07	7.750109885476789850e-13	1.862179615528628984e+00	5.573393784501993416e-07	7.237377649121721861e-13
1.200000000000003334e-06	1.847646280616725090e+00	-8.229104895431245422e-07	7.811191953665191730e-13	1.860211252121473979e+00	6.778957286859379382e-07	7.284574021263472530e-13
1.210000000000003238e-06	1.845456998559519946e+00	-1.004244935008160851e-06	7.873016891984914445e-13	1.858240653064515913e+00	8.220626070015953049e-07	7.332290784145603388e-13
1.220000000000003142e-06	1.843264619222189982e+00	-1.221330159879684889e-06	7.935592712754085475e-13	1.856267800328851969e+00	9.938470453367224865e-07	7.380534703333893442e-13
1.230000000000003047e-06	1.841069175611010911e+00	-1.479923751779452934e-06	7.998927475766069901e-13	1.854292680819384920e+00	1.197716833911054828e-06	7.429312625230553045e-13
1.240000000000002951e-06	1.838870705860413901e+00	-1.789076001170976806e-06	8.063029288243508970e-13	1.852315286128713989e+00	1.420557479628906952e-06	7.478631478156549142e-13
1.250000000000002855e-06	1.836669252989731049e+00	-2.173136471437959497e-06	8.127906304805210654e-13	1.850335612305423982e+00	1.710636765594894150e-06	7.528498273440630143e-13
1.260000000000002759e-06	1.834464864673216011e+00	-2.635165703659369391e-06	8.193566727460342629e-13	1.848353659635820989e+00	2.056654753272583480e-06	7.578920106507269369e-13
1.270000000000002664e-06	1.832257593022361020e+00	-3.189749636680518328e-06	8.260018805618133870e-13	1.846369432438220048e+00	2.468677609843122788e-06	7.629904157973913270e-13
1.280000000000002568e-06	1.830047494379736017e+00	-3.853777859782491258e-06	8.327270836126453867e-13	1.844382938868968980e+00	2.958339934923998521e-06	7.681457694751500191e-13
1.290000000000002472e-06	1.827834629123580967e+00	-4.646674866510347522e-06	8.395331163338294032e-13	1.842394190739448101e+00	3.539030489127298755e-06	7.733588071150213650e-13
1.300000000000002376e-06	1.825619061482411043e+00	-5.590624369194106159e-06	8.464208179210089305e-13	1.840403203343323968e+00	4.226025221217084141e-06	7.786302729991589913e-13
1.310000000000002281e-06	1.823400859358998094e+00	-6.710796966502894880e-06	8.533910323434751654e-13	1.838409995293406096e+00	5.036657341582051117e-06	7.839609203726776924e-13
1.320000000000002185e-06	1.821180094163092900e+00	-8.035554816340605692e-06	8.604446083613080844e-13	1.836414588367486944e+00	5.990524075216956321e-06	7.893515115561354532e-13
1.330000000000002089e-06	1.818956840652347973e+00	-9.596655332894391533e-06	8.675823995466407007e-13	1.834417007362616925e+00	7.109569897040984581e-06	7.948028180586970483e-13
1.340000000000001993e-06	1.816731176780844059e+00	-1.142938370362581511e-05	8.748052643094352514e-13	1.832417279957234912e+00	8.418237320777072254e-06	8.003156206921416839e-13
1.350000000000001898e-06	1.814503183554790899e+00	-1.357271459266321841e-05	8.821140659280744416e-13	1.830415436580711930e+00	9.943593838134932199e-06	8.058907096855353531e-13
1.360000000000001802e-06	1.812272944894907978e+00	-1.606943585949367409e-05	8.895096725851272108e-13	1.828411510289817965e+00	1.171542429311357825e-05	8.115288848007839892e-13
1.370000000000001706e-06	1.810040547505020969e+00	-1.896625317870018388e-05	8.969929574087297763e-13	1.826405536651660944e+00	1.376626211597210723e-05	8.172309554490943768e-13
1.380000000000001610e-06	1.807806080746549915e+00	-2.231392773159864714e-05	9.045647985197443187e-13	1.824397553632761015e+00	1.613149850848191234e-05	8.229977408082506317e-13
1.390000000000001515e-06	1.805569636518415066e+00	-2.616732595073420950e-05	9.122260790853446746e-13	1.822387601493790976e+00	1.884942462034951062e-05	8.288300699409247573e-13
1.400000000000001419e-06	1.803331309142095940e+00	-3.058562163550361074e-05	9.199776873791348586e-13	1.820375722689733022e+00	2.196120694180824857e-05	8.347287819139192942e-13
1.410000000000001323e-06	1.801091195251458110e+00	-3.563246772849679628e-05	9.278205168483199257e-13	1.818361961775029956e+00	2.551097061990019658e-05	8.406947259184582833e-13
1.420000000000001227e-06	1.798849393687055986e+00	-4.137636005572203164e-05	9.357554661883422593e-13	1.816346365313491029e+00	2.954588567650876570e-05	8.467287613915642067e-13
1.430000000000001132e-06	1.796606005394641992e+00	-4.789092009992423340e-05	9.437834394251693822e-13	1.814328981792632911e+00	3.411619383856973075e-05	8.528317581385357497e-13
1.440000000000001036e-06	1.794361133327583957e+00	-5.525554898937040785e-05	9.519053460059077956e-13	1.812309861542193090e+00	3.927535053381554884e-05	8.590045964565863615e-13
1.450000000000000940e-06	1.792114882352970007e+00	-6.355615600258897931e-05	9.601221008978158521e-13	1.810289056656561035e+00	4.508028507568749804e-05	8.652481672596648198e-13
1.460000000000000844e-06	1.789867359161132043e+00	-7.288607011378762577e-05	9.684346246963497806e-13	1.808266620920897960e+00	5.159164198481545454e-05	8.715633722045836141e-13
1.470000000000000749e-06	1.787618672178405976e+00	-8.332629302140529806e-05	9.768438437419954759e-13	1.806242609740718041e+00	5.889637551076792708e-05	8.779511238184401005e-13
1.480000000000000653e-06	1.785368931482893107e+00	-9.501388162249299325e-05	9.853506902491402487e-13	1.804217080074717039e+00	6.701791311149806027e-05	8.844123456270776913e-13
1.490000000000000557e-06	1.783118248723041921e+00	-1.080587532359957400e-04	9.939561024404612009e-13	1.802190090370670017e+00	7.605251151603028030e-05	8.909479722855734960e-13
1.500000000000000462e-06	1.780866737038873104e+00	-1.225943200584463924e-04	1.002661024696158423e-12	1.800161700504194995e+00	8.608001743238133309e-05	8.975589497095422367e-13
1.510000000000000366e-06	1.778614510985673913e+00	-1.387682824843698497e-04	1.011466407711892772e-12	1.798131971720231981e+00	9.718713535366802837e-05	9.042462352081975198e-13
1.520000000000000270e-06	1.776361686460006917e+00	-1.567443685358450183e-04	1.020373208668231679e-12	1.796100966577045099e+00	1.094683091198470456e-04	9.110107976189129772e-13
1.530000000000000174e-06	1.774108380627879011e+00	-1.767037450121564102e-04	1.029382391411691847e-12	1.794068748892631016e+00	1.230269720801710075e-04	9.178536174433303327e-13
1.540000000000000079e-06	1.771854711854945030e+00	-1.988460695904518906e-04	1.038494926647615509e-12	1.792035383693360906e+00	1.379766565218164254e-04	9.247756869851410148e-13
1.549999999999999983e-06	1.769600799638600064e+00	-2.233903520857846139e-04	1.047711792145132096e-12	1.790000937164740957e+00	1.544416826211074064e-04	9.317780104895025414e-13
1.559999999999999887e-06	1.767346764541863013e+00	-2.505724535156609104e-04	1.057033972954948470e-12	1.787965476604157056e+00	1.725601201606581040e-04	9.388616042842000422e-13
1.569999999999999791e-06	1.765092728128909938e+00	-2.806467752503336651e-04	1.066462461639470124e-12	1.785929070375475991e+00	1.924806298267470444e-04	9.460274969226174394e-13
1.579999999999999696e-06	1.762838812902177921e+00	-3.138789955186227975e-04	1.075998258516557538e-12	1.783891787865415024e+00	2.143666102700378601e-04	9.532767293284954692e-13
1.589999999999999600e-06	1.760585142240914891e+00	-3.505421091349027402e-04	1.085642371916354045e-12	1.781853699441537930e+00	2.383940494083045501e-04	9.606103549425954893e-13
1.599999999999999504e-06	1.758331840341103902e+00	-3.909073931805955742e-04	1.095395818451877087e-12	1.779814876411808910e+00	2.647507538998902267e-04	9.680294398713330916e-13
1.609999999999999408e-06	1.756079032156683040e+00	-4.352331765961021471e-04	1.105259623303554006e-12	1.777775390985607107e+00	2.936343291489305245e-04	9.755350630373290120e-13
1.619999999999999313e-06	1.753826843341945052e+00	-4.837498768615597139e-04	1.115234820517817689e-12	1.775735316236086936e+00	3.252487662741589125e-04	9.831283163320772686e-13
1.629999999999999217e-06	1.751575400195066967e+00	-5.366416035700222230e-04	1.125322453320138690e-12	1.773694726063828053e+00	3.597996262827707088e-04	9.908103047706622670e-13
1.639999999999999121e-06	1.749324829602715958e+00	-5.940241074366687905e-04	1.135523574442423354e-12	1.771653695161689024e+00	3.974874476210327125e-04	9.985821466486347345e-13
1.649999999999999025e-06	1.747075258985625990e+00	-6.559190477112037277e-04	1.145839246465307057e-12	1.769612298980776988e+00	4.384992293494260787e-04	1.006444973701075967e-12
1.659999999999998930e-06	1.744826816245121925e+00	-7.222253654167364251e-04	1.156270542175074761e-12	1.767570613697484916e+00	4.829977643554123892e-04	1.014399931263917637e-12
