# wavelength [m]	effective refractive index	transmission [dB/m]	effective mode area [m]	effective refractive index	transmission [dB/m]	effective mode area [m]	
5.500000000000095572e-07	1.963247468742526092e+00	-1.046681032198199124e-11	2.918657043434636397e-13	1.967404203172880006e+00	1.398274826502041264e-12	2.869654900963691966e-13
5.600000000000094614e-07	1.959370200515194060e+00	-1.282121583157815441e-11	2.944743962738973506e-13	1.963719905671009069e+00	2.045338556559040030e-12	2.891804266854002170e-13
5.700000000000093657e-07	1.955558321818746004e+00	-1.570793010271490103e-11	2.971266868418923212e-13	1.960105094609301046e+00	2.676973047151100099e-12	2.914242419078884258e-13
5.800000000000092699e-07	1.951805565646592910e+00	-1.907150430606623659e-11	2.998234695311972282e-13	1.956553453067173098e+00	3.514009288118756827e-12	2.936976299074335071e-13
5.900000000000091742e-07	1.948106274549268990e+00	-2.311348288214397103e-11	3.025656420560436642e-13	1.953059270781807077e+00	4.736776515707162951e-12	2.960012860443864734e-13
6.000000000000090785e-07	1.944455334377964029e+00	-8.437865332342081773e-13	3.053541070078214414e-13	1.949617377922133077e+00	1.263268981184787730e-13	2.983359078540659566e-13
6.100000000000089827e-07	1.940848116374296994e+00	5.679888777998488971e-13	3.081897724358090602e-13	1.946223087209768998e+00	-4.744491135442431809e-13	3.007021959308283890e-13
6.200000000000088870e-07	1.937280426416535972e+00	2.701081233814917182e-12	3.110735523691453255e-13	1.942872143197027057e+00	-1.571853770482142422e-12	3.031008547468179271e-13
6.300000000000087912e-07	1.933748460421458981e+00	4.786921543967879541e-12	3.140063672862838788e-13	1.939560677701154034e+00	-2.950359883920784135e-12	3.055325934130837875e-13
6.400000000000086955e-07	1.930248765056769900e+00	8.312502761681378719e-12	3.169891445373726524e-13	1.936285170549715051e+00	-4.927713354090092411e-12	3.079981263897576666e-13
6.500000000000085997e-07	1.926778203048328919e+00	1.175611614473521067e-11	3.200228187242669736e-13	1.933042414921332997e+00	-7.096003662638159912e-12	3.104981741512182265e-13
6.600000000000085040e-07	1.923333922473837054e+00	1.858451893537518329e-11	3.231083320423558942e-13	1.929829486673444894e+00	-1.050731207557732802e-11	3.130334638113851624e-13
6.700000000000084082e-07	1.919913329524294054e+00	2.596644569180273245e-11	3.262466345878712997e-13	1.926643717138412981e+00	-1.358110587522445445e-11	3.156047297137173362e-13
6.800000000000083125e-07	1.916514064289811969e+00	3.422205313290821598e-11	3.294386846338928962e-13	1.923482668944564988e+00	-1.729280229400124874e-11	3.182127139899295080e-13
6.900000000000082168e-07	1.913133979189425071e+00	4.642658154949330094e-11	3.326854488779833364e-13	1.920344114481874032e+00	-2.386710479725943744e-11	3.208581670909663566e-13
7.000000000000081210e-07	1.909771119717887933e+00	5.629454451461638798e-11	3.359879026640003058e-13	1.917226016685247059e+00	-2.981121930113063420e-11	3.235418482934009463e-13
7.100000000000080253e-07	1.906423707227413056e+00	7.111143603799031403e-11	3.393470301804458408e-13	1.914126511853468937e+00	-3.480932856031350340e-11	3.262645261840231200e-13
7.200000000000079295e-07	1.903090123500631003e+00	8.697269420757010721e-11	3.427638246374553631e-13	1.911043894260096909e+00	-4.315317196474071223e-11	3.290269791251404586e-13
7.300000000000078338e-07	1.899768896903464954e+00	5.113828555101973724e-11	3.462392884243821495e-13	1.907976602345039074e+00	-3.996414103281847114e-11	3.318299957027501795e-13
7.400000000000077380e-07	1.896458689934382935e+00	-2.466060165374738018e-10	3.497744332497651880e-13	1.904923206303352101e+00	3.608802678067372615e-11	3.346743751596176641e-13
7.500000000000076423e-07	1.893158288010281964e+00	-2.583655078290415424e-10	3.533702802652975200e-13	1.901882396911553919e+00	2.956338714202350188e-11	3.375609278149760569e-13
7.600000000000075466e-07	1.889866589349445958e+00	-1.363081695631794983e-10	3.570278601754989089e-13	1.898852975451950087e+00	1.996138569170098929e-10	3.404904754724895824e-13
7.700000000000074508e-07	1.886582595829733977e+00	-1.938756263361994453e-10	3.607482133344084775e-13	1.895833844613169061e+00	2.210007114691930408e-10	3.434638518178427231e-13
7.800000000000073551e-07	1.883305404714967102e+00	-2.685179473975303923e-10	3.645323898308623645e-13	1.892824000259968997e+00	2.423557432148764060e-10	3.464819028073146234e-13
7.900000000000072593e-07	1.880034201155750040e+00	-3.563334638180562299e-10	3.683814495636702245e-13	1.889822523978573088e+00	2.770088507233967461e-10	3.495454870484389332e-13
8.000000000000071636e-07	1.876768251382048946e+00	-4.552344066332689639e-10	3.722964623080796248e-13	1.886828576314935058e+00	3.120795120246281646e-10	3.526554761738350203e-13
8.100000000000070678e-07	1.873506896514745890e+00	1.840727554667236694e-10	3.762785077748305009e-13	1.883841390633198998e+00	-3.500137437654854086e-10	3.558127552091753578e-13
8.200000000000069721e-07	1.870249546931801898e+00	-1.712215973049810933e-09	3.803286756631508067e-13	1.880860267530066965e+00	-3.113692848678863839e-10	3.590182229361314150e-13
8.300000000000068763e-07	1.866995677132144094e+00	-1.704237609752144225e-09	3.844480657090405069e-13	1.877884569748204946e+00	-3.652134732945499233e-10	3.622727922511242210e-13
8.400000000000067806e-07	1.863744821046809941e+00	-1.749888389873197458e-09	3.886377877300799371e-13	1.874913717538327029e+00	-4.408702668537425035e-10	3.655773905206160585e-13
8.500000000000066849e-07	1.860496567752573105e+00	-1.849731480655369158e-09	3.928989616682824440e-13	1.871947184425200028e+00	-5.392856707914104804e-10	3.689329599336020409e-13
8.600000000000065891e-07	1.857250557548161929e+00	-2.011870607971323449e-09	3.972327176322514663e-13	1.868984493337747077e+00	-6.717543705628385133e-10	3.723404578519406910e-13
8.700000000000064934e-07	1.854006478357653975e+00	-2.243062332225927876e-09	4.016401959401007773e-13	1.866025213067890931e+00	-8.495671943154759990e-10	3.758008571591094733e-13
8.800000000000063976e-07	1.850764062429322010e+00	-2.506939935990408007e-09	4.061225471645943939e-13	1.863068955026450979e+00	-1.089789845234735091e-09	3.793151466079339742e-13
8.900000000000063019e-07	1.847523083301684022e+00	-2.765998313253749145e-09	4.106809321820052124e-13	1.860115370267898971e+00	-1.410768653388068782e-09	3.828843311677934805e-13
9.000000000000062061e-07	1.844283353011415993e+00	-2.929274864851478292e-09	4.153165222262259196e-13	1.857164146758689904e+00	-1.842304230504818568e-09	3.865094323718056060e-13
9.100000000000061104e-07	1.841044719520471995e+00	-2.863108017853533230e-09	4.200304989497239339e-13	1.854215006866535953e+00	-2.421816339650780113e-09	3.901914886644366248e-13
9.200000000000060147e-07	1.837807064342013019e+00	-2.415784953507863321e-09	4.248240544930199318e-13	1.851267705050279044e+00	-3.200043552738714709e-09	3.939315557500095664e-13
9.300000000000059189e-07	1.834570300346916927e+00	-1.370367672000149662e-09	4.296983915643269536e-13	1.848322025732167084e+00	-4.241632454640903773e-09	3.977307069424967533e-13
9.400000000000058232e-07	1.831334369734344047e+00	5.140791150792651346e-10	4.346547235311849910e-13	1.845377781336045908e+00	-5.651834084855758946e-09	4.015900335170555570e-13
9.500000000000057274e-07	1.828099242151600023e+00	3.529587996908067312e-09	4.396942745258477556e-13	1.842434810476730078e+00	-7.542792013676096341e-09	4.055106450636828951e-13
9.600000000000056317e-07	1.824864912949873075e+00	8.002408792534416116e-09	4.448182795663368552e-13	1.839492976287171899e+00	-1.007161302645105539e-08	4.094936698434048379e-13
9.700000000000055359e-07	1.821631401563813979e+00	2.837936071345213030e-08	4.500279846951395459e-13	1.836552164871404935e+00	-2.059715623209894474e-08	4.135402551473739176e-13
9.800000000000054402e-07	1.818398750003999087e+00	3.735867752808239664e-08	4.553246471371571633e-13	1.833612283872326998e+00	-2.586228490191317287e-08	4.176515676593332711e-13
9.900000000000053444e-07	1.815167021452464002e+00	4.906199277028717332e-08	4.607095354799258869e-13	1.830673261144522890e+00	-3.256428562199785395e-08	4.218287938217219121e-13
1.000000000000005249e-06	1.811936298952282032e+00	6.432094434161784336e-08	4.661839298769467113e-13	1.827735043523113889e+00	-4.111965625737029578e-08	4.260731402059600321e-13
1.010000000000005153e-06	1.808706684183138069e+00	8.419861353353649539e-08	4.717491222771933308e-13	1.824797595680585971e+00	-5.210376329093111624e-08	4.303858338871944325e-13
1.020000000000005057e-06	1.805478296315486952e+00	1.100579922614526963e-07	4.774064166826773712e-13	1.821860899064180916e+00	-6.620340848782269715e-08	4.347681228240148157e-13
1.030000000000004961e-06	1.802251270936622962e+00	1.436546790154125571e-07	4.831571294363835788e-13	1.818924950907182980e+00	-8.432216383901709194e-08	4.392212762434740985e-13
1.040000000000004866e-06	1.799025759042570005e+00	1.872111397462313374e-07	4.890025895428185650e-13	1.815989763307980898e+00	-1.076053211354788728e-07	4.437465850319342810e-13
1.050000000000004770e-06	1.795801926090281997e+00	2.435129650346192923e-07	4.949441390235483211e-13	1.813055362371392976e+00	-1.374686352131766971e-07	4.483453621320551312e-13
1.060000000000004674e-06	1.792579951105039093e+00	3.160316529740667289e-07	5.009831333101340506e-13	1.810121787407104943e+00	-1.757186426406217499e-07	4.530189429465207761e-13
1.070000000000004578e-06	1.789360025838516055e+00	4.089960695237412274e-07	5.071209416767858990e-13	1.807189090180683078e+00	-2.245641984964876493e-07	4.577686857488987571e-13
1.080000000000004483e-06	1.786142353973297903e+00	5.275852250148385528e-07	5.133589477152030967e-13	1.804257334212884034e+00	-2.867383418817617242e-07	4.625959721021173864e-13
1.090000000000004387e-06	1.782927150370015035e+00	6.778357050964786649e-07	5.196985498540461094e-13	1.801326594123388913e+00	-3.655357741341283016e-07	4.675022072851370078e-13
1.100000000000004291e-06	1.779714640353637023e+00	8.668470825315114931e-07	5.261411619254196492e-13	1.798396955015477916e+00	-4.649670433903927019e-07	4.724888207282480387e-13
1.110000000000004196e-06	1.776505059035675016e+00	1.099908812439352217e-06	5.326882137808433395e-13	1.795468511898308028e+00	-5.627456859766058512e-07	4.775572664577021578e-13
1.120000000000004100e-06	1.773298650669483889e+00	1.415909137317154411e-06	5.393411519594622901e-13	1.792541369143930918e+00	-7.193338569227246930e-07	4.827090235499369499e-13
1.130000000000004004e-06	1.770095668035881920e+00	1.818465134406231054e-06	5.461014404099991678e-13	1.789615639976213979e+00	-9.179377768913865093e-07	4.879455965965717718e-13
1.140000000000003908e-06	1.766896371856768067e+00	2.329365449135292352e-06	5.529705612701171662e-13	1.786691445989236016e+00	-1.169234670957957783e-06	4.932685161801340446e-13
1.150000000000003813e-06	1.763701030234442912e+00	2.975053700195013537e-06	5.599500157045907500e-13	1.783768916692815898e+00	-1.486371800464686145e-06	4.986793393616422387e-13
1.160000000000003717e-06	1.760509918114651962e+00	3.787144605796147911e-06	5.670413248050459218e-13	1.780848189083060973e+00	-1.885185248902297852e-06	5.041796501805387101e-13
1.170000000000003621e-06	1.757323316771469024e+00	4.803168008209134145e-06	5.742460305534826553e-13	1.777929407235983028e+00	-2.384929120566704422e-06	5.097710601677488797e-13
1.180000000000003525e-06	1.754141513312355016e+00	6.067029931010193982e-06	5.815656968517453950e-13	1.775012721922397008e+00	-3.008366382104978818e-06	5.154552088725684240e-13
1.190000000000003430e-06	1.750964800201832983e+00	7.629643022725488984e-06	5.890019106191904161e-13	1.772098290242428043e+00	-3.782415768459737732e-06	5.212337644042002062e-13
1.200000000000003334e-06	1.747793474802380009e+00	9.549370967881399435e-06	5.965562829605935615e-13	1.769186275278116893e+00	-4.738512465884115454e-06	5.271084239887282441e-13
1.210000000000003238e-06	1.744627838931269048e+00	1.189248884205989712e-05	6.042304504062805807e-13	1.766276845762706937e+00	-5.912941729031668688e-06	5.330809145423787138e-13
1.220000000000003142e-06	1.741468198432168046e+00	1.473365933133283993e-05	6.120260762264456333e-13	1.763370175765311965e+00	-7.347242099344798389e-06	5.391529932619459613e-13
1.230000000000003047e-06	1.738314862760488966e+00	1.815648392087967659e-05	6.199448518214356081e-13	1.760466444389783947e+00	-9.088657832615681397e-06	5.453264482332948141e-13
1.240000000000002951e-06	1.735168144581469063e+00	2.225425916976865457e-05	6.279884981896586590e-13	1.757565835486643024e+00	-1.119042985042076373e-05	5.516030990588868343e-13
1.250000000000002855e-06	1.732028359380161087e+00	2.713090105291698150e-05	6.361587674748150391e-13	1.754668537377070070e+00	-1.371217470829393391e-05	5.579847975053280388e-13
1.260000000000002759e-06	1.728895825082543913e+00	3.290248421699361369e-05	6.444574445937882435e-13	1.751774742588019018e+00	-1.672036723190138479e-05	5.644734281719329848e-13
1.270000000000002664e-06	1.725770861687029090e+00	3.969918215055375540e-05	6.528863489465774838e-13	1.748884647597551023e+00	-2.028895215821824348e-05	5.710709091813584817e-13
1.280000000000002568e-06	1.722653790905743110e+00	4.766806977361453737e-05	6.614473362094977262e-13	1.745998452589619943e+00	-2.449997601601752541e-05	5.777791928934226960e-13
1.290000000000002472e-06	1.719544935815044084e+00	5.697664498329546237e-05	6.701423002126267411e-13	1.743116361217535104e+00	-2.944461952076589967e-05	5.846002666432084480e-13
1.300000000000002376e-06	1.716444620514719910e+00	6.771519057509403367e-05	6.789731749032132030e-13	1.740238580375434108e+00	-3.526458071384459191e-05	5.915361535049352256e-13
1.310000000000002281e-06	1.713353169795456932e+00	8.030317163508565389e-05	6.879419363911747918e-13	1.737365319977121958e+00	-4.200688613177462421e-05	5.985889130807472869e-13
1.320000000000002185e-06	1.710270908814188973e+00	9.488776487905526292e-05	6.970506050886606243e-13	1.734496792741683002e+00	-4.982659310749781444e-05	6.057606423207417652e-13
1.330000000000002089e-06	1.707198162776967010e+00	1.117578368296117574e-04	7.063012479291533810e-13	1.731633213985356079e+00	-5.886806257571841692e-05	6.130534763687403485e-13
1.340000000000001993e-06	1.704135256629051076e+00	1.312429555152684992e-04	7.156959806773394614e-13	1.728774801419147966e+00	-6.929542601418217597e-05	6.204695894400908807e-13
1.350000000000001898e-06	1.701082514751981911e+00	1.537132539861295018e-04	7.252369703256990091e-13	1.725921774951725940e+00	-8.129625237207423649e-05	6.280111957307510734e-13
1.360000000000001802e-06	1.698040260667422086e+00	1.795749211589130895e-04	7.349264375781590187e-13	1.723074356497215964e+00	-9.508461710135079979e-05	6.356805503593960295e-13
1.370000000000001706e-06	1.695008816747543001e+00	2.092587031281455318e-04	7.447666594209527066e-13	1.720232769787441107e+00	-1.109041976387044277e-04	6.434799503438588110e-13
1.380000000000001610e-06	1.691988503931882049e+00	2.431991442985130937e-04	7.547599717798264596e-13	1.717397240188339946e+00	-1.290299049772743937e-04	6.514117356132167156e-13
1.390000000000001515e-06	1.688979641450470082e+00	2.818021310601507927e-04	7.649087722634899559e-13	1.714567994520161953e+00	-1.497678092547059217e-04	6.594782900569619425e-13
1.400000000000001419e-06	1.685982546553220995e+00	3.253982003615689877e-04	7.752155229920830244e-13	1.711745260881200936e+00	-1.734515017332688403e-04	6.676820426125921315e-13
1.410000000000001323e-06	1.682997534245447957e+00	3.741810125091725859e-04	7.856827535102904849e-13	1.708929268474780105e+00	-2.004344570149114687e-04	6.760254683930482484e-13
1.420000000000001227e-06	1.680024917029520948e+00	4.281297350773007526e-04	7.963130637833706370e-13	1.706120247439232074e+00	-2.310761609001271331e-04	6.845110898553687236e-13
1.430000000000001132e-06	1.677065004652612989e+00	4.869189633611884318e-04	8.071091272755026590e-13	1.703318428680689056e+00	-2.657209847249100633e-04	6.931414780119029008e-13
1.440000000000001036e-06	1.674118103860543938e+00	5.498209179455028307e-04	8.180736941084736207e-13	1.700524043708462996e+00	-3.046681720317627137e-04	7.019192536855916455e-13
1.450000000000000940e-06	1.671184518155369059e+00	6.583432965586833536e-04	8.292095941939372179e-13	1.697737324473397980e+00	-3.386982644795059113e-04	7.108470888331693563e-13
1.460000000000000844e-06	1.668264547570392109e+00	7.632101399746856569e-04	8.405197409456449613e-13	1.694958503205991951e+00	-3.889967716663259045e-04	7.199277078118962576e-13
1.470000000000000749e-06	1.665358488429995898e+00	8.844133517476291968e-04	8.520071341136932036e-13	1.692187812261207958e+00	-4.468621533392544529e-04	7.291638888834408109e-13
1.480000000000000653e-06	1.662466633135960103e+00	1.023994783297304699e-03	8.636748635967920899e-13	1.689425483961118912e+00	-5.134662449051939637e-04	7.385584655924928300e-13
1.490000000000000557e-06	1.659589269950499935e+00	1.184031818296504227e-03	8.755261128960928755e-13	1.686671750441381068e+00	-5.901140623215975168e-04	7.481143282768587327e-13
1.500000000000000462e-06	1.656726682787498017e+00	1.366583564487244915e-03	8.875641627195846319e-13	1.683926843499200965e+00	-6.782366437836796075e-04	7.578344256140499777e-13
1.510000000000000366e-06	1.653879151010207993e+00	1.573635183449807306e-03	8.997923946528960269e-13	1.681190994443026998e+00	-7.793782393589600115e-04	7.677217662207763249e-13
1.520000000000000270e-06	1.651046949235495109e+00	1.807044752083025469e-03	9.122142948937634561e-13	1.678464433943958944e+00	-8.951758941419834430e-04	7.777794203061584796e-13
1.530000000000000174e-06	1.648230347144715058e+00	2.068500967767132083e-03	9.248334580471566955e-13	1.675747391888797955e+00	-1.027333379437325158e-03	7.880105213798780692e-13
1.540000000000000079e-06	1.645429609301320983e+00	2.359499086692975860e-03	9.376535909784225102e-13	1.673040097234733015e+00	-1.177588771663343279e-03	7.984182680159750049e-13
1.549999999999999983e-06	1.642644994975271944e+00	2.681315871848068220e-03	9.506785167208224562e-13	1.670342777865611028e+00	-1.347616033376144995e-03	8.090059256730055094e-13
1.559999999999999887e-06	1.639876757974352062e+00	3.035189532644844666e-03	9.639121784339071511e-13	1.667655660449824051e+00	-1.539299972781340989e-03	8.197768285720019137e-13
1.569999999999999791e-06	1.637125146482510951e+00	3.422112244112088773e-03	9.773586434108670684e-13	1.664978970299771932e+00	-1.754065194909923452e-03	8.307343816307336464e-13
1.579999999999999696e-06	1.634390402905230966e+00	3.843246124689465599e-03	9.910221071278686048e-13	1.662312931232956092e+00	-1.993492245273114239e-03	8.418820624579404331e-13
1.589999999999999600e-06	1.631672763722106012e+00	4.299938527099132247e-03	1.004906897334890946e-12	1.659657765434672028e+00	-2.258959450091279839e-03	8.532234234046206618e-13
1.599999999999999504e-06	1.628972459346639035e+00	4.793955190576923084e-03	1.019017478181481625e-12	1.657013693322386905e+00	-2.551712188934942595e-03	8.647620936743982363e-13
1.609999999999999408e-06	1.626289713993374964e+00	5.327693744810519348e-03	1.033358454374245650e-12	1.654380933411806920e+00	-2.872873780959785302e-03	8.765017814922891679e-13
1.619999999999999313e-06	1.623624745552405990e+00	5.904384285861877940e-03	1.047934575360768457e-12	1.651759702184675049e+00	-3.223484310715663253e-03	8.884462763316597981e-13
1.629999999999999217e-06	1.620977765471975918e+00	6.510136709112150644e-03	1.062750739528041997e-12	1.649150213958223921e+00	-3.605355751806772844e-03	9.005994511966376273e-13
1.639999999999999121e-06	1.618348978646350078e+00	7.139047841600021371e-03	1.077811998484648509e-12	1.646552680756961040e+00	-4.019915745838334442e-03	9.129652649604256977e-13
1.649999999999999025e-06	1.615738583312757992e+00	7.834005694867921671e-03	1.093123561129050046e-12	1.643967312185903085e+00	-4.463815321540421342e-03	9.255477647936972693e-13
1.659999999999998930e-06	1.613146770958773901e+00	8.578626744815336796e-03	1.108690798081890996e-12	1.641394315305582996e+00	-4.940460143448822949e-03	9.383510885687827392e-13
