# wavelength [m]	effective refractive index	transmission [dB/m]	effective mode area [m]	effective refractive index	transmission [dB/m]	effective mode area [m]	
5.500000000000095572e-07	1.986945580083467000e+00	-4.821637332766435678e-16	4.055779802264242436e-13	1.987652834428861093e+00	-2.410818666383218135e-15	4.048796308979220900e-13
5.600000000000094614e-07	1.983821945170959999e+00	-2.892982399659862393e-15	4.080851355763696256e-13	1.984563176692327957e+00	-2.410818666383218135e-15	4.072945735511198395e-13
5.700000000000093657e-07	1.980770556813463923e+00	-2.410818666383218135e-15	4.106214370347444218e-13	1.981546616588069076e+00	-2.410818666383218135e-15	4.097352788484776188e-13
5.800000000000092699e-07	1.977784942367555976e+00	-1.446491199829930999e-15	4.131874950404344173e-13	1.978596680074264036e+00	-5.785964799319727153e-15	4.122023053872643223e-13
5.900000000000091742e-07	1.974859238076879020e+00	-9.643274665532871356e-16	4.157839167456406659e-13	1.975707501561682955e+00	-4.821637332766435678e-16	4.146962080940992326e-13
6.000000000000090785e-07	1.971988122775476082e+00	-4.339473599489793589e-15	4.184113068928984926e-13	1.972873757623238911e+00	-6.268128532596370622e-15	4.172175391274268688e-13
6.100000000000089827e-07	1.969166759937466038e+00	-4.821637332766435678e-16	4.210702686130618205e-13	1.970090609049653052e+00	-6.268128532596370622e-15	4.197668486968356481e-13
6.200000000000088870e-07	1.966390746883575957e+00	5.785964799319719264e-15	4.237614041532582593e-13	1.967353650061756998e+00	2.892982399659860421e-15	4.223446858090760444e-13
6.300000000000087912e-07	1.963656070144047971e+00	-1.928654933106574666e-15	4.264853155426305069e-13	1.964658863678985012e+00	3.857309866213146965e-15	4.249515989494312320e-13
6.400000000000086955e-07	1.960959066133119988e+00	2.892982399659860421e-15	4.292426052027152664e-13	1.962002582399215989e+00	-1.446491199829930999e-15	4.275881367058675691e-13
6.500000000000085997e-07	1.958296386419517976e+00	-9.643274665532871356e-16	4.320338765084303821e-13	1.959381453474472901e+00	1.928654933106573877e-15	4.302548483424768004e-13
6.600000000000085040e-07	1.955664966984832942e+00	9.643274665532869384e-16	4.348597343049079290e-13	1.956792408174311104e+00	-9.643274665532871356e-16	4.329522843279063358e-13
6.700000000000084082e-07	1.953062000951268917e+00	-2.892982399659862393e-15	4.377207853848047902e-13	1.954232634518427991e+00	1.928654933106573877e-15	4.356809968237161019e-13
6.800000000000083125e-07	1.950484914335480990e+00	-1.446491199829930999e-15	4.406176389301049516e-13	1.951699553035205925e+00	0.000000000000000000e+00	4.384415401370260210e-13
6.900000000000082168e-07	1.947931344448301072e+00	-4.821637332766438636e-15	4.435509069220256134e-13	1.949190795166003909e+00	5.785964799319719264e-15	4.412344711412876519e-13
7.000000000000081210e-07	1.945399120613455102e+00	-9.161110932256236170e-15	4.465212045221584786e-13	1.946704183988303916e+00	9.643274665532859918e-15	4.440603496685163847e-13
7.100000000000080253e-07	1.942886246923335891e+00	-1.784005813123584544e-14	4.495291504276634516e-13	1.944237716975800057e+00	2.314385919727882972e-14	4.469197388759947319e-13
7.200000000000079295e-07	1.940390886788228908e+00	-2.555467786366218512e-14	4.525753672029893685e-13	1.941789550551819010e+00	3.375146132936491820e-14	4.498132055900365553e-13
7.300000000000078338e-07	1.937911349067751976e+00	-5.159151946060116754e-14	4.556604815903166385e-13	1.939357986224863106e+00	5.689532052664356491e-14	4.527413206291373091e-13
7.400000000000077380e-07	1.935446075601098048e+00	-8.823596318962667389e-14	4.587851248006960416e-13	1.936941458122857007e+00	1.031830389212004923e-13	4.557046591085882990e-13
7.500000000000076423e-07	1.932993629976387906e+00	-1.528459034486987179e-13	4.619499327876388173e-13	1.934538521766421049e+00	1.745432714461414633e-13	4.587038007283689071e-13
7.600000000000075466e-07	1.930552687399667899e+00	-2.536181237035219322e-13	4.651555465046855814e-13	1.932147843941715015e+00	3.027988244977215437e-13	4.617393300459367629e-13
7.700000000000074508e-07	1.928122025541783024e+00	-3.977850799532491408e-13	4.684026121483901764e-13	1.929768193551091970e+00	5.236298143384033115e-13	4.648118367354023520e-13
7.800000000000073551e-07	1.925700516256164896e+00	-6.726184079209697683e-13	4.716917813879634680e-13	1.927398433334611916e+00	8.592157726988938328e-13	4.679219158343382737e-13
7.900000000000072593e-07	1.923287118073840007e+00	-1.846687098449937468e-12	4.750237115826592774e-13	1.925037512368706905e+00	2.209274225873018810e-12	4.710701679794155531e-13
8.000000000000071636e-07	1.920880869393049029e+00	-2.942163100455075584e-12	4.783990659879814607e-13	1.922684459259444090e+00	3.498580048653916479e-12	4.742571996318982054e-13
8.100000000000070678e-07	1.918480882290749978e+00	-4.635039967990847915e-12	4.818185139515531495e-13	1.920338375957608923e+00	5.477380010019216922e-12	4.774836232939191591e-13
8.200000000000069721e-07	1.916086336891730912e+00	-7.167846058896498073e-12	4.852827310995209727e-13	1.917998432131384989e+00	8.524654804322691164e-12	4.807500577163745137e-13
8.300000000000068763e-07	1.913696476238464950e+00	-1.109024802911023865e-11	4.887923995141936076e-13	1.915663860039749977e+00	1.308495939364183914e-11	4.840571280992247386e-13
8.400000000000067806e-07	1.911310601611331039e+00	-2.852962809807270713e-11	4.923482079036308705e-13	1.913333949856230065e+00	3.355570285352509896e-11	4.874054662848249180e-13
8.500000000000066849e-07	1.908928068254482024e+00	-4.429734650381771122e-11	4.959508517637403192e-13	1.911008045398272959e+00	5.149701536857332037e-11	4.907957109449419869e-13
8.600000000000065891e-07	1.906548281467500106e+00	-6.730668201980806324e-11	4.996010335334874161e-13	1.908685540222436083e+00	7.776143824722780727e-11	4.942285077620172463e-13
8.700000000000064934e-07	1.904170693027511074e+00	-1.014568927572564183e-10	5.032994627436893864e-13	1.906365874050012010e+00	1.166093702364576269e-10	4.977045096051380322e-13
8.800000000000063976e-07	1.901794797910050017e+00	-1.515416505528266302e-10	5.070468561598790641e-13	1.904048529491439101e+00	1.735278346203975804e-10	5.012243767012340123e-13
8.900000000000063019e-07	1.899420131280511903e+00	-2.245089348039399915e-10	5.108439379196228312e-13	1.901733029041291934e+00	2.556904634216106369e-10	5.047887768018475813e-13
9.000000000000062061e-07	1.897046265730869097e+00	-3.295323927017576812e-10	5.146914396647554151e-13	1.899418932318581055e+00	3.734618482482998218e-10	5.083983853459394038e-13
9.100000000000061104e-07	1.894672808739056968e+00	-4.795470307226269144e-10	5.185901006688088182e-13	1.897105833529739050e+00	5.408285946707379960e-10	5.120538856189882040e-13
9.200000000000060147e-07	1.892299400330669013e+00	-6.915211549753502065e-10	5.225406679600289797e-13	1.894793359133952082e+00	7.763453274638656816e-10	5.157559689087870837e-13
9.300000000000059189e-07	1.889925710924774016e+00	-9.884477074229359323e-10	5.265438964402663271e-13	1.892481165692653899e+00	1.104389280637465753e-09	5.195053346581592186e-13
9.400000000000058232e-07	1.887551439347352922e+00	-1.400311968501113972e-09	5.306005490000379933e-13	1.890168937886695932e+00	1.557615475158876217e-09	5.233026906149206951e-13
9.500000000000057274e-07	1.885176310997664029e+00	-1.966445962638525583e-09	5.347113966300228170e-13	1.887856386686469934e+00	2.177620176238022846e-09	5.271487529792847616e-13
9.600000000000056317e-07	1.882800076154099944e+00	-2.737730500045028373e-09	5.388772185292767005e-13	1.885543247661614075e+00	3.018499261657455585e-09	5.310442465489913336e-13
9.700000000000055359e-07	1.880422508407564974e+00	-3.779287096866180745e-09	5.430988022103639137e-13	1.883229279418267010e+00	4.148948526958650546e-09	5.349899048623303789e-13
9.800000000000054402e-07	1.878043403211417051e+00	-5.174229691245695428e-09	5.473769436017046399e-13	1.880914262152981964e+00	5.656029384138337546e-09	5.389864703392973809e-13
9.900000000000053444e-07	1.875662576538188020e+00	-7.027688781932846157e-09	5.517124471473087035e-13	1.878597996313468022e+00	7.649141890711188651e-09	5.430346944210427421e-13
1.000000000000005249e-06	1.873279863634061071e+00	-9.471891987687375916e-09	5.561061259041261052e-13	1.876280301357180047e+00	1.026571524592626962e-08	5.471353377078069788e-13
1.010000000000005153e-06	1.870895117863079049e+00	-1.267219398716712317e-08	5.605588016372523598e-13	1.873961014599716091e+00	1.367591660152710054e-08	5.512891700955022548e-13
1.020000000000005057e-06	1.868508209633662931e+00	-1.683524823026719498e-08	5.650713049131675639e-13	1.871639990145608001e+00	1.809125382666229216e-08	5.554969709110996948e-13
1.030000000000004961e-06	1.866119025400772014e+00	-2.221842118563127001e-08	5.696444751912285092e-13	1.869317097894845903e+00	2.377299408601208166e-08	5.597595290469816097e-13
1.040000000000004866e-06	1.863727466737602034e+00	-2.913737677713181685e-08	5.742791609136256842e-13	1.866992222619044073e+00	3.104251589411664644e-08	5.640776430944308985e-13
1.050000000000004770e-06	1.861333449471306967e+00	-3.799015757095949061e-08	5.789762195939587485e-13	1.864665263101713100e+00	4.029614432751240138e-08	5.684521214762986209e-13
1.060000000000004674e-06	1.858936902877599939e+00	-4.926109078635464599e-08	5.837365179047266336e-13	1.862336131337533951e+00	5.202109328392689938e-08	5.728837825791373153e-13
1.070000000000004578e-06	1.856537768929696020e+00	-6.355421719324243495e-08	5.885609317638319351e-13	1.860004751786070054e+00	6.681267004482651698e-08	5.773734548848172280e-13
1.080000000000004483e-06	1.854136001597328942e+00	-8.160845323869434849e-08	5.934503464203933281e-13	1.857671060675669894e+00	8.540151848480962848e-08	5.819219771018113473e-13
1.090000000000004387e-06	1.851731566191973988e+00	-1.043351819870733634e-07	5.984056565400441251e-13	1.855335005353693001e+00	1.086809230306190276e-07	5.865301982962802052e-13
1.100000000000004291e-06	1.849324438754784028e+00	-1.328457851648248673e-07	6.034277662898901464e-13	1.852996543679565011e+00	1.377346622824255077e-07	5.911989780230473248e-13
1.110000000000004196e-06	1.846914605483916061e+00	-1.685000205972359164e-07	6.085175894234364917e-13	1.850655643457354893e+00	1.738804268735431224e-07	5.959291864566688758e-13
1.120000000000004100e-06	1.844502062198382975e+00	-2.129351714471388515e-07	6.136760493656441629e-13	1.848312281904999077e+00	2.187056461349644425e-07	6.007217045226652935e-13
1.130000000000004004e-06	1.842086813835597026e+00	-2.681297318931580037e-07	6.189040792983755401e-13	1.845966445157354086e+00	2.741123871388279463e-07	6.055774240290646042e-13
1.140000000000003908e-06	1.839668873980172092e+00	-3.364357709890638242e-07	6.242026222464588279e-13	1.843618127800632056e+00	3.423605671140105241e-07	6.104972477984307305e-13
1.150000000000003813e-06	1.837248264421643906e+00	-4.206301192600458217e-07	6.295726311646273438e-13	1.841267332435909010e+00	4.261105795242487332e-07	6.154820898004514959e-13
1.160000000000003717e-06	1.834825014738993954e+00	-5.239539125292121891e-07	6.350150690256049631e-13	1.838914069269564910e+00	5.284614157374024321e-07	6.205328752852880764e-13
1.170000000000003621e-06	1.832399161910031937e+00	-6.501339857030454612e-07	6.405309089095714781e-13	1.836558355728727943e+00	6.529778993921421779e-07	6.256505409177914163e-13
1.180000000000003525e-06	1.829970749943822916e+00	-8.016906110720848533e-07	6.461211340953431050e-13	1.834200216099920011e+00	8.003982056923605429e-07	6.308360349127493880e-13
1.190000000000003430e-06	1.827539829534509996e+00	-9.890730291140983865e-07	6.517867381534526177e-13	1.831839681189233016e+00	9.811047982856822479e-07	6.360903171713378683e-13
1.200000000000003334e-06	1.825106457734982035e+00	-1.224568505501461388e-06	6.575287250415420942e-13	1.829476788002520893e+00	1.208430240049292605e-06	6.414143594189158816e-13
1.210000000000003238e-06	1.822670697649005023e+00	-1.513156888421949746e-06	6.633481092023676635e-13	1.827111579444181899e+00	1.485609635805686436e-06	6.468091453442626540e-13
1.220000000000003142e-06	1.820232618140454894e+00	-1.865941343464321802e-06	6.692459156646046704e-13	1.824744104033229952e+00	1.822822579314319525e-06	6.522756707405849483e-13
1.230000000000003047e-06	1.817792293558496919e+00	-2.295982117069717111e-06	6.752231801469497492e-13	1.822374415635453104e+00	2.232009272158294092e-06	6.578149436483508193e-13
1.240000000000002951e-06	1.815349803477549040e+00	-2.818558827562873551e-06	6.812809491657546715e-13	1.820002573210512953e+00	2.727100160234699124e-06	6.634279845001412378e-13
1.250000000000002855e-06	1.812905232451003990e+00	-3.451410865697702760e-06	6.874202801466329231e-13	1.817628640572978016e+00	3.324235571094680332e-06	6.691158262677693928e-13
1.260000000000002759e-06	1.810458669777760932e+00	-4.214985380271149853e-06	6.936422415403141641e-13	1.815252686166316964e+00	4.041975375925871113e-06	6.748795146118061083e-13
1.270000000000002664e-06	1.808010209280656033e+00	-5.132664995639807367e-06	6.999479129432165068e-13	1.812874782848955091e+00	4.901503480060195582e-06	6.807201080337764311e-13
1.280000000000002568e-06	1.805559949095953964e+00	-6.230995431139114342e-06	7.063383852230685120e-13	1.810495007691572011e+00	5.926822776017244936e-06	6.866386780311606759e-13
1.290000000000002472e-06	1.803107991473178018e+00	-7.539894420749547177e-06	7.128147606500544754e-13	1.808113441784872988e+00	7.144930009742395469e-06	6.926363092555445528e-13
1.300000000000002376e-06	1.800654442584509018e+00	-9.092842182650065090e-06	7.193781530337793606e-13	1.805730170057125106e+00	8.585971677026827336e-06	6.987140996740023877e-13
1.310000000000002281e-06	1.798199412343115977e+00	-1.092705633022359948e-05	7.260296878666628603e-13	1.803345281100763975e+00	1.028338832738786082e-05	7.048731607341124852e-13
1.320000000000002185e-06	1.795743014229800982e+00	-1.308367468492619310e-05	7.327705024740493530e-13	1.800958867007498965e+00	1.227404296782838831e-05	7.111146175327035892e-13
1.330000000000002089e-06	1.793285365127383901e+00	-1.560792842858417691e-05	7.396017461715498325e-13	1.798571023211303910e+00	1.459834558768749677e-05	7.174396089887030160e-13
1.340000000000001993e-06	1.790826585162277995e+00	-1.854934735319700858e-05	7.465245804301360310e-13	1.796181848338777920e+00	1.730038565974880270e-05	7.238492880203365740e-13
1.350000000000001898e-06	1.788366797552769949e+00	-2.196201817048514025e-05	7.535401790493536752e-13	1.793791444066360041e+00	2.042809685059877048e-05	7.303448217268913046e-13
1.360000000000001802e-06	1.785906128463556897e+00	-2.590491178070520226e-05	7.606497283392316398e-13	1.791399914983963004e+00	2.403346310918921981e-05	7.369273915754116209e-13
1.370000000000001706e-06	1.783444706866051055e+00	-3.044232560046439387e-05	7.678544273113672329e-13	1.789007368464532899e+00	2.817281396471192029e-05	7.435981935925956169e-13
1.380000000000001610e-06	1.780982664404137994e+00	-3.564448675384529182e-05	7.751554878796806683e-13	1.786613914539223025e+00	3.290722851692642567e-05	7.503584385621932595e-13
1.390000000000001515e-06	1.778520135264914037e+00	-4.158832660661819063e-05	7.825541350713667205e-13	1.784219665777684094e+00	3.830306624635010989e-05	7.572093522282532069e-13
1.400000000000001419e-06	1.776057256054135891e+00	-4.835848692000666824e-05	7.900516072485427787e-13	1.781824737173238082e+00	4.443270056697937122e-05	7.641521755044689746e-13
1.410000000000001323e-06	1.773594165676009915e+00	-5.604856270203074589e-05	7.976491563412158038e-13	1.779429246032512957e+00	5.137542846097976445e-05	7.711881646901154835e-13
1.420000000000001227e-06	1.771131005217015941e+00	-6.476022748193351465e-05	8.053480480919343240e-13	1.777033311869278043e+00	5.921971832739930230e-05	7.783185916927572421e-13
1.430000000000001132e-06	1.768667917833522063e+00	-7.460733166026995258e-05	8.131495623129801114e-13	1.774637056302186933e+00	6.805624897569441812e-05	7.855447442581196374e-13
1.440000000000001036e-06	1.766205048642861986e+00	-8.572002038898134178e-05	8.210549931561438699e-13	1.772240602956137945e+00	7.799457483762892575e-05	7.928679262076898001e-13
1.450000000000000940e-06	1.763742544617697972e+00	-9.824234836206774770e-05	8.290656493961853487e-13	1.769844077367024981e+00	8.915343790127409841e-05	8.002894576840810741e-13
1.460000000000000844e-06	1.761280554483370953e+00	-1.123355013987446544e-04	8.371828547281987151e-13	1.767447606889626099e+00	1.016653009087330130e-04	8.078106754048019707e-13
1.470000000000000749e-06	1.758819228618083041e+00	-1.281791832783083223e-04	8.454079480795053858e-13	1.765051320608417074e+00	1.156777892708176587e-04	8.154329329247803943e-13
1.480000000000000653e-06	1.756358718955669973e+00	-1.459723749575722520e-04	8.537422839365983762e-13	1.762655349251101011e+00	1.313547890053666327e-04	8.231576009078963820e-13
1.490000000000000557e-06	1.753899178890802935e+00	-1.659331243467646543e-04	8.621872326878282233e-13	1.760259825104671938e+00	1.488769615426219618e-04	8.309860674081559597e-13
1.500000000000000462e-06	1.751440763186425942e+00	-1.882969033035811191e-04	8.707441809821522876e-13	1.757864881933806078e+00	1.684413738556815967e-04	8.389197381607078624e-13
1.510000000000000366e-06	1.748983627883293979e+00	-2.133130578796818100e-04	8.794145321046060891e-13	1.755470654901446048e+00	1.902598329945143988e-04	8.469600368832424216e-13
1.520000000000000270e-06	1.746527930211430046e+00	-2.412387975277776068e-04	8.881997063690973716e-13	1.753077280491400991e+00	2.145555634808418287e-04	8.551084055881884301e-13
1.530000000000000174e-06	1.744073828503394097e+00	-2.723301637367272370e-04	8.971011415288149143e-13	1.750684896432807003e+00	2.415577159908473856e-04	8.633663049060308014e-13
1.540000000000000079e-06	1.741621482109205976e+00	-3.068294364888276117e-04	9.061202932049833446e-13	1.748293641626337935e+00	2.714933222677554884e-04	8.717352144203657709e-13
1.549999999999999983e-06	1.739171051312830008e+00	-3.449485170792932062e-04	9.152586353342920182e-13	1.745903656072014032e+00	3.045761665477913246e-04	8.802166330148667122e-13
1.559999999999999887e-06	1.736722697250085989e+00	-3.868479862608234488e-04	9.245176606355585740e-13	1.743515080798500927e+00	3.409923084111198075e-04	8.888120792328713220e-13
1.569999999999999791e-06	1.734276581827919106e+00	-4.326117637286574732e-04	9.338988810960313649e-13	1.741128057793789985e+00	3.808819454339569944e-04	8.975230916497812204e-13
1.579999999999999696e-06	1.731832867644883089e+00	-4.822176390307336647e-04	9.434038284777477870e-13	1.738742729937140075e+00	4.243175873869927880e-04	9.063512292588410351e-13
1.589999999999999600e-06	1.729391717913649984e+00	-5.373473687357477498e-04	9.530340548789919052e-13	1.736359240931591996e+00	4.685569013412980576e-04	9.152980718460197446e-13
1.599999999999999504e-06	1.726953296381531056e+00	-6.019189626215480171e-04	9.627911331919836238e-13	1.733977735239770057e+00	5.190464727505456370e-04	9.243652204675879292e-13
1.609999999999999408e-06	1.724517767255105083e+00	-6.775246418698688744e-04	9.726766577065145463e-13	1.731598358018435979e+00	5.816540667605562013e-04	9.335542978526397900e-13
1.619999999999999313e-06	1.722085295127141036e+00	-7.625351034714318924e-04	9.826922447940719825e-13	1.729221255053110973e+00	6.517058878052158812e-04	9.428669487834102367e-13
1.629999999999999217e-06	1.719656044899604996e+00	-8.580842608559692639e-04	9.928395334135538701e-13	1.726846572696814963e+00	7.302153269162236799e-04	9.523048406260179802e-13
1.639999999999999121e-06	1.717230181710871939e+00	-9.652968885219888762e-04	1.003120185779504492e-12	1.724474457807319006e+00	8.181126487943498043e-04	9.618696637819423667e-13
1.649999999999999025e-06	1.714807870862868011e+00	-1.085339583056884076e-03	1.013535888017298469e-12	1.722105057685670015e+00	9.163746589176586816e-04	9.715631321795696005e-13
1.659999999999998930e-06	1.712389277748989969e+00	-1.219405038267268922e-03	1.024088350841666561e-12	1.719738520015402061e+00	1.026013544824506355e-03	9.813869837812996957e-13
