# wavelength [m]	effective refractive index	transmission [dB/m]	effective mode area [m]	effective refractive index	transmission [dB/m]	effective mode area [m]	
5.500000000000095572e-07	1.978855109281786095e+00	1.928654933106573877e-15	3.470442829923389828e-13	1.979736595794054033e+00	-1.060760213208617052e-14	3.460576788299192026e-13
5.600000000000094614e-07	1.975475003715317923e+00	-5.303801066043082106e-15	3.494874260755299654e-13	1.976398106167774005e+00	1.253625706519271284e-14	3.483999663834880086e-13
5.700000000000093657e-07	1.972164737017167102e+00	1.735789439795913334e-14	3.519626387058775735e-13	1.973130443717717064e+00	1.157192959863943064e-14	3.507707501272002314e-13
5.800000000000092699e-07	1.968917896852852900e+00	1.157192959863943064e-14	3.544706055433316356e-13	1.969927190977174947e+00	-1.928654933106574666e-15	3.531706551862950822e-13
5.900000000000091742e-07	1.965728679650136090e+00	-4.339473599489793589e-15	3.570120105169153223e-13	1.966782538671673963e+00	-8.678947198979593490e-15	3.556003058134421985e-13
6.000000000000090785e-07	1.962591824317770905e+00	-2.603684159693883096e-14	3.595875376767987768e-13	1.963691219445574010e+00	-4.339473599489793589e-15	3.580603262412884387e-13
6.100000000000089827e-07	1.959502554311056910e+00	-1.446491199829930999e-15	3.621978719723182685e-13	1.960648449935135984e+00	-3.857309866213150120e-15	3.605513414609075901e-13
6.200000000000088870e-07	1.956456526854547961e+00	2.410818666383210877e-14	3.648436999642778576e-13	1.957649879998466957e+00	-1.446491199829933090e-14	3.630739779349898997e-13
6.300000000000087912e-07	1.953449788321339087e+00	8.678947198979574557e-15	3.675257104787800322e-13	1.954691548101765042e+00	8.678947198979574557e-15	3.656288642534686381e-13
6.400000000000086955e-07	1.950478734923982049e+00	1.060760213208614528e-14	3.702445952089522978e-13	1.951769842016966905e+00	4.532339092800425418e-14	3.682166317382295173e-13
6.500000000000085997e-07	1.947540078001430031e+00	-3.857309866213166055e-14	3.730010492701066885e-13	1.948881464115187923e+00	2.121520426417226531e-14	3.708379150026921650e-13
6.600000000000085040e-07	1.944630813293759974e+00	1.639356693140584798e-14	3.757957717132233913e-13	1.946023400647767909e+00	4.821637332766433114e-15	3.734933524713675485e-13
6.700000000000084082e-07	1.941748193686122947e+00	-3.905526239540830008e-14	3.786294660010533688e-13	1.943192894496355905e+00	-1.205409333191610645e-14	3.761835868637727692e-13
6.800000000000083125e-07	1.938889704978590034e+00	1.350058453174581077e-13	3.815028404506119234e-13	1.940387420948739061e+00	-1.976871306434243194e-14	3.789092656466193611e-13
6.900000000000082168e-07	1.936053044301607073e+00	-3.712660746230171673e-14	3.844166086453914631e-13	1.937604666120156027e+00	-7.136023252494382351e-14	3.816710414576631310e-13
7.000000000000081210e-07	1.933236100850167949e+00	8.389648959013516374e-14	3.873714898202828104e-13	1.934842507693200986e+00	2.796549653004523759e-14	3.844695725042243687e-13
7.100000000000080253e-07	1.930436938654690904e+00	-5.303801066043082106e-15	3.903682092217728775e-13	1.932098997694345899e+00	-3.760877119557835626e-14	3.873055229390421779e-13
7.200000000000079295e-07	1.927653781145000966e+00	6.075263039285665587e-14	3.934074984457919068e-13	1.929372347063466941e+00	-8.003917972392357477e-14	3.901795632157645331e-13
7.300000000000078338e-07	1.924884997296119948e+00	1.629713418475024429e-13	3.964900957552424799e-13	1.926660911805136989e+00	-1.494707573157620645e-13	3.930923704262062839e-13
7.400000000000077380e-07	1.922129089172444960e+00	2.381888842386553815e-13	3.996167463790815522e-13	1.923963180538236006e+00	-2.912268948991024909e-13	3.960446286211457411e-13
7.500000000000076423e-07	1.919384680710604085e+00	5.679888777998488971e-13	4.027882027945781160e-13	1.921277763284211959e+00	-3.948920975535890512e-13	3.990370291163597932e-13
7.600000000000075466e-07	1.916650507601493025e+00	8.852526142958272679e-13	4.060052249942479785e-13	1.918603381354492932e+00	-6.219912159269147169e-13	4.020702707853190704e-13
7.700000000000074508e-07	1.913925408149697915e+00	1.619105816342667092e-12	4.092685807387692324e-13	1.915938858215290086e+00	-1.203480678258668959e-12	4.051450603398415315e-13
7.800000000000073551e-07	1.911208315003368963e+00	2.544860184233379175e-12	4.125790457970770331e-13	1.913283111222827904e+00	-1.820650256852987877e-12	4.082621125999072287e-13
7.900000000000072593e-07	1.908498247660769920e+00	3.809093492883813133e-12	4.159374041747169947e-13	1.910635144135298891e+00	-2.704456379949535662e-12	4.114221507536308639e-13
8.000000000000071636e-07	1.905794305670946986e+00	5.745463045720683873e-12	4.193444483314110083e-13	1.907994040318937934e+00	-4.487497865608039862e-12	4.146259066083610369e-13
8.100000000000070678e-07	1.903095662455726034e+00	9.064678185591439334e-12	4.228009793887393021e-13	1.905358956575478935e+00	-6.928210683457617232e-12	4.178741208337422500e-13
8.200000000000069721e-07	1.900401559688775111e+00	1.422961609643699249e-11	4.263078073287204852e-13	1.902729117526726910e+00	-1.046632815824871498e-11	4.211675431974991971e-13
8.300000000000068763e-07	1.897711302174857950e+00	3.758948464608445752e-11	4.298657511840237593e-13	1.900103810499373047e+00	-2.771573571629646250e-11	4.245069327946437455e-13
8.400000000000067806e-07	1.895024253178875906e+00	5.859639417724864534e-11	4.334756392205053240e-13	1.897482380859681905e+00	-4.333976932952063013e-11	4.278930582707147974e-13
8.500000000000066849e-07	1.892339830159972092e+00	8.985314035010611536e-11	4.371383091126458421e-13	1.894864227753314978e+00	-6.658006127374895563e-11	4.313266980396293599e-13
8.600000000000065891e-07	1.889657500870834062e+00	1.370097177907967488e-10	4.408546081125116216e-13	1.892248800210454052e+00	-1.015706833983123753e-10	4.348086404966772612e-13
8.700000000000064934e-07	1.886976779786855962e+00	2.070507503387206947e-10	4.446253932127194959e-13	1.889635593580879958e+00	-1.535783101622586840e-10	4.383396842271113730e-13
8.800000000000063976e-07	1.884297224833431983e+00	3.094362904389947132e-10	4.484515313039494001e-13	1.887024146267296976e+00	-2.303305797198270181e-10	4.419206382107838337e-13
8.900000000000063019e-07	1.881618434383216965e+00	4.585261383922838387e-10	4.523338993274321685e-13	1.884414036728748965e+00	-3.421602608772495504e-10	4.455523220232440360e-13
9.000000000000062061e-07	1.878940044498017103e+00	6.731844680916105788e-10	4.562733844229017227e-13	1.881804880728801033e+00	-5.029980282206558507e-10	4.492355660336554723e-13
9.100000000000061104e-07	1.876261726392709939e+00	9.785088661661858784e-10	4.602708840723695533e-13	1.879196328805877947e+00	-7.328223360471336433e-10	4.529712115998855043e-13
9.200000000000060147e-07	1.873583184100813925e+00	1.408919072849543660e-09	4.643273062402125324e-13	1.876588063945421991e+00	-1.057656043222568679e-09	4.567601112611053118e-13
9.300000000000059189e-07	1.870904152323523917e+00	2.008953516454350420e-09	4.684435695098832411e-13	1.873979799435657956e+00	-1.512360552023647021e-09	4.606031289281929449e-13
9.400000000000058232e-07	1.868224394445697989e+00	2.838330103892925469e-09	4.726206032176972445e-13	1.871371276890481994e+00	-2.141958865435306821e-09	4.645011400722521480e-13
9.500000000000057274e-07	1.865543700704070051e+00	3.973427427625554401e-09	4.768593475840024093e-13	1.868762264424765007e+00	-3.006934084441022336e-09	4.684550319114956538e-13
9.600000000000056317e-07	1.862861886494286967e+00	5.513290597050136912e-09	4.811607538421889889e-13	1.866152554968645072e+00	-4.183587173554092377e-09	4.724657035967975365e-13
9.700000000000055359e-07	1.860178790804750015e+00	7.584610061090088587e-09	4.855257843658199734e-13	1.863541964708822940e+00	-5.771145982975707550e-09	4.765340663961373230e-13
9.800000000000054402e-07	1.857494274766311015e+00	1.034771972483241303e-08	4.899554127943137718e-13	1.860930331645930025e+00	-7.894769610938689258e-09	4.806610438782168222e-13
9.900000000000053444e-07	1.854808220308024946e+00	1.400815441386484907e-08	4.944506241575396044e-13	1.858317514258128966e+00	-1.071634549640095776e-08	4.848475720954656565e-13
1.000000000000005249e-06	1.852120528909938058e+00	1.882077140931952319e-08	4.990124149996846696e-13	1.855703390261987940e+00	-1.443666638863516046e-08	4.890945997667243831e-13
1.010000000000005153e-06	1.849431120444851029e+00	2.511113247984159181e-08	5.036417935027900140e-13	1.853087855462552058e+00	-1.931124869340106893e-08	4.934030884597617139e-13
1.020000000000005057e-06	1.846739932101657100e+00	3.328416546942342775e-08	5.083397796103557718e-13	1.850470822685200911e+00	-2.566134027189575278e-08	4.977740127739910595e-13
1.030000000000004961e-06	1.844046917383548978e+00	4.384859070970753159e-08	5.131074051514175499e-13	1.847852220782634891e+00	-3.388756230073140290e-08	5.022083605234961546e-13
1.040000000000004866e-06	1.841352045175010943e+00	5.744161069224548527e-08	5.179457139655065392e-13	1.845231993710868101e+00	-4.449383134580592919e-08	5.067071329207220020e-13
1.050000000000004770e-06	1.838655298872047927e+00	7.485613688408633315e-08	5.228557620288758419e-13	1.842610099668712031e+00	-5.811045018730595079e-08	5.112713447609697743e-13
1.060000000000004674e-06	1.835956675570505903e+00	9.708217093826431496e-08	5.278386175825468597e-13	1.839986510295620992e+00	-7.551923144917628490e-08	5.159020246080580672e-13
1.070000000000004578e-06	1.833256185307946984e+00	1.253428184523095994e-07	5.328953612625188507e-13	1.837361209923324967e+00	-9.769915706783149093e-08	5.206002149813389246e-13
1.080000000000004483e-06	1.830553850354798007e+00	1.611518891884498823e-07	5.380270862326828797e-13	1.834734194877017943e+00	-1.258507738629372120e-07	5.253669725443384370e-13
1.090000000000004387e-06	1.827849704550885024e+00	2.063601731842388198e-07	5.432348983209284706e-13	1.832105472822197934e+00	-1.614571848619306357e-07	5.302033682953450317e-13
1.100000000000004291e-06	1.825143792683870059e+00	2.632204672276170201e-07	5.485199161589158241e-13	1.829475062153681941e+00	-2.063308727371128550e-07	5.351104877601582058e-13
1.110000000000004196e-06	1.822436169906259895e+00	3.344434874468797786e-07	5.538832713261176293e-13	1.826842991423462959e+00	-2.626601037773930753e-07	5.400894311873510133e-13
1.120000000000004100e-06	1.819726901188102097e+00	4.232516786654735331e-07	5.593261084986100942e-13	1.824209298804545965e+00	-3.330733754168800411e-07	5.451413137463188328e-13
1.130000000000004004e-06	1.817016060802534083e+00	5.334301509744651839e-07	5.648495856032596341e-13	1.821574031587920972e+00	-4.206753375436597905e-07	5.502672657284549033e-13
1.140000000000003908e-06	1.814303731841756973e+00	6.693505514255570639e-07	5.704548739778619894e-13	1.818937245710231077e+00	-5.290956912928439391e-07	5.554684327517516105e-13
1.150000000000003813e-06	1.811590005761074984e+00	8.372138935377385530e-07	5.761431585378360818e-13	1.816299005309816028e+00	-6.616316995032911466e-07	5.607459759691987063e-13
1.160000000000003717e-06	1.808874981948894067e+00	1.046828430777049477e-06	5.819156379502399149e-13	1.813659382308985935e+00	-8.266264248867966800e-07	5.661010722813233892e-13
1.170000000000003621e-06	1.806158767320714897e+00	1.311816969899999525e-06	5.877735248156249997e-13	1.811018456020589973e+00	-1.036890970361738378e-06	5.715349145532309049e-13
1.180000000000003525e-06	1.803441475935323002e+00	1.640334871977837028e-06	5.937180458584700530e-13	1.808376312777076000e+00	-1.297902552978682661e-06	5.770487118366121689e-13
1.190000000000003430e-06	1.800723228631510908e+00	2.046383450731502212e-06	5.997504421270218557e-13	1.805733045580361962e+00	-1.621019178215593313e-06	5.826436895969943732e-13
1.200000000000003334e-06	1.798004152683791101e+00	2.546560084078348795e-06	6.058719692031762783e-13	1.803088753770998975e+00	-2.019767510721338135e-06	5.883210899467707504e-13
1.210000000000003238e-06	1.795284381475702018e+00	3.160373950422466157e-06	6.120838974231866686e-13	1.800443542715207013e+00	-2.510141546565937916e-06	5.940821718843849161e-13
1.220000000000003142e-06	1.792564054189367040e+00	3.910566561514229066e-06	6.183875121100305180e-13	1.797797523508460893e+00	-3.110902532234394785e-06	5.999282115401758744e-13
1.230000000000003047e-06	1.789843315510144972e+00	4.823403070753629537e-06	6.247841138182694629e-13	1.795150812694437104e+00	-3.843868786470313997e-06	6.058605024293092909e-13
1.240000000000002951e-06	1.787122315345194945e+00	5.928981694937634331e-06	6.312750185921453880e-13	1.792503531998173028e+00	-4.734205856207429463e-06	6.118803557123089916e-13
1.250000000000002855e-06	1.784401208554968976e+00	7.261496906668820027e-06	6.378615582379623583e-13	1.789855808072414067e+00	-5.810713323592758164e-06	6.179891004637701000e-13
1.260000000000002759e-06	1.781680154696658969e+00	8.859484506391581598e-06	6.445450806114366640e-13	1.787207772256192984e+00	-7.106078174570991953e-06	6.241880839496595223e-13
1.270000000000002664e-06	1.778959317778697979e+00	1.076607208870353509e-05	6.513269499211245812e-13	1.784559560344735063e+00	-8.657128123348687185e-06	6.304786719138496160e-13
1.280000000000002568e-06	1.776238866025519059e+00	1.302919343142337514e-05	6.582085470487369574e-13	1.781911312369865108e+00	-1.050507960904073260e-05	6.368622488744636212e-13
1.290000000000002472e-06	1.773518971651794063e+00	1.570186104895835479e-05	6.651912698873326914e-13	1.779263172390165959e+00	-1.269576873834163756e-05	6.433402184305423711e-13
1.300000000000002376e-06	1.770799810645460104e+00	1.884245523130372349e-05	6.722765336984008504e-13	1.776615288290146921e+00	-1.527993909001980124e-05	6.499140035797386977e-13
1.310000000000002281e-06	1.768081562558861952e+00	2.251513005595008984e-05	6.794657714887964346e-13	1.773967811587787935e+00	-1.831353953881100031e-05	6.565850470476144796e-13
1.320000000000002185e-06	1.765364410307431076e+00	2.679035481518198531e-05	6.867604344085454881e-13	1.771320897249820003e+00	-2.185815617186977466e-05	6.633548116291978755e-13
1.330000000000002089e-06	1.762648539975329998e+00	3.174563936566590866e-05	6.941619921705122342e-13	1.768674703514208968e+00	-2.598155558683179400e-05	6.702247805434584889e-13
1.340000000000001993e-06	1.759934140627531063e+00	3.746655448487759918e-05	7.016719334931069070e-13	1.766029391719263097e+00	-3.075840302850114250e-05	6.771964578014421211e-13
1.350000000000001898e-06	1.757221404127867981e+00	4.404803508742848923e-05	7.092917665668372252e-13	1.763385126138907966e+00	-3.627125207715257353e-05	6.842713685886560122e-13
1.360000000000001802e-06	1.754510524962618945e+00	5.159604500350353334e-05	7.170230195460294007e-13	1.760742073823682086e+00	-4.261178135828164052e-05	6.914510596625362939e-13
1.370000000000001706e-06	1.751801700069173018e+00	6.022725013404194245e-05	7.248672410666393653e-13	1.758100404446959919e+00	-4.988485460527109742e-05	6.987370997656368229e-13
1.380000000000001610e-06	1.749095128669452048e+00	7.007088287313245590e-05	7.328260007910572270e-13	1.755460290156108050e+00	-5.819528634872225484e-05	7.061310800554427081e-13
1.390000000000001515e-06	1.746391012107695095e+00	8.127920837662046185e-05	7.409008899815499265e-13	1.752821905428112004e+00	-6.767565007797007035e-05	7.136346145512336341e-13
1.400000000000001419e-06	1.743689553692306937e+00	9.402130879188970892e-05	7.490935221026272459e-13	1.750185426929401933e+00	-7.847023573036875012e-05	7.212493405991757529e-13
1.410000000000001323e-06	1.740990958541456024e+00	1.084878532119358020e-04	7.574055334540296549e-13	1.747551033379526997e+00	-9.074189102017771538e-05	7.289769193561473185e-13
1.420000000000001227e-06	1.738295433432146098e+00	1.248924334772993667e-04	7.658385838350436046e-13	1.744918905418382016e+00	-1.046740590681308604e-04	7.368190362931916857e-13
1.430000000000001132e-06	1.735603186652534990e+00	1.434719087991228931e-04	7.743943572413284917e-13	1.742289225476749026e+00	-1.204721892679062737e-04	7.447774017193137820e-13
1.440000000000001036e-06	1.732914427857229045e+00	1.644846911037867805e-04	7.830745625952398944e-13	1.739662177649853980e+00	-1.383641884310467588e-04	7.528537513265283154e-13
1.450000000000000940e-06	1.730229367925369077e+00	1.882066669447671615e-04	7.918809345106654848e-13	1.737037947573754959e+00	-1.585992284638888567e-04	7.610498467568377603e-13
1.460000000000000844e-06	1.727548218821298942e+00	2.149234582279159001e-04	8.008152340933511509e-13	1.734416722304296110e+00	-1.814444529236979833e-04	7.693674761920269776e-13
1.470000000000000749e-06	1.724871193457661933e+00	2.449184860376669298e-04	8.098792497776941497e-13	1.731798690198486090e+00	-2.071785545834879390e-04	7.778084549670383384e-13
1.480000000000000653e-06	1.722198505560726955e+00	2.784557056776648925e-04	8.190747982008584456e-13	1.729184040798056099e+00	-2.360816638020351676e-04	7.863746262076803164e-13
1.490000000000000557e-06	1.719530369537838110e+00	3.157563647990955982e-04	8.284037251152207601e-13	1.726572964715092029e+00	-2.684205839933850174e-04	7.950678614935036972e-13
1.500000000000000462e-06	1.716867000346836925e+00	3.569694918795744557e-04	8.378679063398838428e-13	1.723965653519526908e+00	-3.044288160657672958e-04	8.038900615465867554e-13
1.510000000000000366e-06	1.714208613367341094e+00	4.021353676082783696e-04	8.474692487520959550e-13	1.721362299628411918e+00	-3.442806648250960476e-04	8.128431569469924637e-13
1.520000000000000270e-06	1.711555424273119019e+00	4.522720063571910145e-04	8.572096912925145219e-13	1.718763096197233997e+00	-3.853597497863474244e-04	8.219291088928545795e-13
1.530000000000000174e-06	1.708907648909248955e+00	5.105009613330542800e-04	8.670912061374815087e-13	1.716168237010645914e+00	-4.358177475059248529e-04	8.311499099085911666e-13
1.540000000000000079e-06	1.706265503164084985e+00	5.795569058495521125e-04	8.771157996402612534e-13	1.713577916379162014e+00	-4.902847626293874942e-04	8.405075847555595658e-13
1.549999999999999983e-06	1.703629202852559033e+00	6.588541652645387662e-04	8.872855137124750040e-13	1.710992329030466053e+00	-5.569614289920720319e-04	8.500041911174046131e-13
1.559999999999999887e-06	1.700998963590236057e+00	7.489465376987010023e-04	8.976024268125066255e-13	1.708411670009307048e+00	-6.327559934088120615e-04	8.596418205969431496e-13
1.569999999999999791e-06	1.698375000676918933e+00	8.511093646192622588e-04	9.080686553102449920e-13	1.705836134572920937e+00	-7.188237491947838467e-04	8.694225995285610029e-13
1.579999999999999696e-06	1.695757528978008022e+00	9.666711665940894366e-04	9.186863547476218156e-13	1.703265918090004938e+00	-8.163965923937742744e-04	8.793486899172298919e-13
1.589999999999999600e-06	1.693146762807870020e+00	1.096992034282115750e-03	9.294577211713027080e-13	1.700701215940255029e+00	-9.267688423463121827e-04	8.894222903911297979e-13
1.599999999999999504e-06	1.690542915814539082e+00	1.243438760624757979e-03	9.403849925097482224e-13	1.698142223414851104e+00	-1.051279247634388271e-03	8.996456371863535636e-13
1.609999999999999408e-06	1.687946200865712010e+00	1.407357937019759666e-03	9.514704499945767175e-13	1.695589135617900034e+00	-1.191289684778002638e-03	9.100210051641353813e-13
1.619999999999999313e-06	1.685356829936031087e+00	1.590048641854284071e-03	9.627164196263034623e-13	1.693042147368732930e+00	-1.348161423598731676e-03	9.205507088607651341e-13
1.629999999999999217e-06	1.682775013995656987e+00	1.792736869627663786e-03	9.741252736842237410e-13	1.690501453105079044e+00	-1.523230135448519788e-03	9.312371035707053735e-13
1.639999999999999121e-06	1.680200962900151973e+00	2.016554261952411414e-03	9.856994322802193290e-13	1.687967246787086095e+00	-1.717781483345239089e-03	9.420825864626826344e-13
1.649999999999999025e-06	1.677634885281640065e+00	2.262523903234174311e-03	9.974413649562304520e-13	1.685439721802153068e+00	-1.933029086056458137e-03	9.530895977293081386e-13
1.659999999999998930e-06	1.675076988441329018e+00	2.531556307754759087e-03	1.009353592324576550e-12	1.682919070870595002e+00	-2.170097470651947275e-03	9.642606217698695330e-13
