# wavelength [m]	effective refractive index	transmission [dB/m]	effective mode area [m]	effective refractive index	transmission [dB/m]	effective mode area [m]	
5.500000000000095572e-07	1.955253031541771991e+00	2.867041990800114325e-11	2.745053395183915715e-13	1.961306526833666020e+00	-1.744420170625072166e-11	2.675058129271686539e-13
5.600000000000094614e-07	1.951130681968298974e+00	2.986136432918642487e-11	2.772264390627365172e-13	1.957459115638142899e+00	-1.496491578973296963e-11	2.696893626140391668e-13
5.700000000000093657e-07	1.947072075945565972e+00	2.527405857082155997e-11	2.799968582404880877e-13	1.953680961987934950e+00	-1.023199658387570579e-11	2.719025913273177533e-13
5.800000000000092699e-07	1.943071037612287943e+00	1.291523775952897012e-11	2.828176018841197567e-13	1.949965800275234917e+00	-9.831318521511875195e-13	2.741462206760232482e-13
5.900000000000091742e-07	1.939122001232769010e+00	-1.482846345321521103e-11	2.856896798919825253e-13	1.946307970581605984e+00	-2.165604656604709194e-10	2.764209753705413260e-13
6.000000000000090785e-07	1.935219944943521009e+00	-9.363137536509234141e-12	2.886141077499926485e-13	1.942702352487061024e+00	-3.840689682496928660e-10	2.787275841753333058e-13
6.100000000000089827e-07	1.931360332845631911e+00	-1.579568390214571482e-12	2.915919069884647975e-13	1.939144307225459940e+00	-5.457153241754576926e-10	2.810667807926929083e-13
6.200000000000088870e-07	1.927539064252868029e+00	1.255940092437185054e-11	2.946241055807897387e-13	1.935629626996230979e+00	-6.810736312010610232e-10	2.834393046846721211e-13
6.300000000000087912e-07	1.923752429094574001e+00	3.456921102086465519e-11	2.977117382898042001e-13	1.932154490431569061e+00	-7.532954903292960976e-10	2.858459018418672723e-13
6.400000000000086955e-07	1.919997068628167103e+00	6.367068530618060599e-11	3.008558469670999959e-13	1.928715423373930982e+00	-7.409294370598227347e-10	2.882873255051478982e-13
6.500000000000085997e-07	1.916269940745326084e+00	9.833632907319159048e-11	3.040574808098251862e-13	1.925309264248052044e+00	-6.178253213153057472e-10	2.907643368461129127e-13
6.600000000000085040e-07	1.912568289263431032e+00	1.409007791182147756e-10	3.073176965791298344e-13	1.921933133419096995e+00	-3.805988358609953318e-10	2.932777056113051189e-13
6.700000000000084082e-07	1.908889616683481005e+00	1.926128395101492043e-10	3.106375587839932170e-13	1.918584406018285060e+00	-1.961731365213782348e-11	2.958282107345800243e-13
6.800000000000083125e-07	1.905231659970946012e+00	2.464444916728322439e-10	3.140181398337916930e-13	1.915260687792541994e+00	4.620121821835045602e-10	2.984166409215054595e-13
6.900000000000082168e-07	1.901592368979146963e+00	3.065654875712691743e-10	3.174605201627512183e-13	1.911959793597884039e+00	1.056265482758561564e-09	3.010437952092038191e-13
7.000000000000081210e-07	1.897969887188061922e+00	3.628523174621800385e-10	3.209657883291594405e-13	1.908679728209530913e+00	1.748287123410553926e-09	3.037104835046682186e-13
7.100000000000080253e-07	1.894362534476432991e+00	4.172905315991566352e-10	3.245350410920576709e-13	1.905418669166742074e+00	2.541830266590375436e-09	3.064175271042366147e-13
7.200000000000079295e-07	1.890768791683407057e+00	4.586032845895999754e-10	3.281693834679787396e-13	1.902174951408726944e+00	3.410104930915178031e-09	3.091657591965908743e-13
7.300000000000078338e-07	1.887187286748313930e+00	-4.328258471269458898e-10	3.318699287701737031e-13	1.898947053490336101e+00	3.815321117988585477e-09	3.119560253513998881e-13
7.400000000000077380e-07	1.883616782245022936e+00	-3.942358727304752070e-10	3.356377986328309600e-13	1.895733585194087967e+00	4.265942663742484915e-09	3.147891839955930419e-13
7.500000000000076423e-07	1.880056164151042042e+00	7.599830041468091711e-09	3.394741230223693564e-13	1.892533276378822071e+00	-9.793155263126073216e-10	3.176661068789206289e-13
7.600000000000075466e-07	1.876504431711780940e+00	8.765877453932895096e-09	3.433800402381321816e-13	1.889344966925498026e+00	-1.531110453126145737e-09	3.205876795296162663e-13
7.700000000000074508e-07	1.872960688278056951e+00	1.421952922883230066e-09	3.473566969053393206e-13	1.886167597658330086e+00	4.253947396272841905e-10	3.235548017036816306e-13
7.800000000000073551e-07	1.869424133009808031e+00	1.502199432985446605e-09	3.514052479618187903e-13	1.883000202134339052e+00	2.680145684434185821e-10	3.265683878263759843e-13
7.900000000000072593e-07	1.865894053352163962e+00	1.546275948483728008e-09	3.555268566407989191e-13	1.879841899207568945e+00	-1.111888855499504635e-10	3.296293674282130603e-13
8.000000000000071636e-07	1.862369818201208949e+00	7.919442885600151828e-10	3.597226944529896682e-13	1.876691886285398070e+00	-1.865900893281583619e-08	3.327386855772279088e-13
8.100000000000070678e-07	1.858850871686567041e+00	1.052013954678297041e-08	3.639939411694372634e-13	1.873549433204201087e+00	-1.214864082007349238e-09	3.358973033073440201e-13
8.200000000000069721e-07	1.855336727506480043e+00	1.228252416915225326e-08	3.683417848077860500e-13	1.870413876660073971e+00	-1.402606585708518210e-09	3.391061980441023949e-13
8.300000000000068763e-07	1.851826963758401057e+00	1.417636687494724383e-08	3.727674216249560963e-13	1.867284615137795978e+00	-1.593284984390800380e-09	3.423663640286304331e-13
8.400000000000067806e-07	1.848321218214658002e+00	1.609911915292911093e-08	3.772720561178994405e-13	1.864161104287622051e+00	-1.798709396542336340e-09	3.456788127404955115e-13
8.500000000000066849e-07	1.844819183998392065e+00	1.796076778472216923e-08	3.818569010357535460e-13	1.861042852705194983e+00	-2.001548446764567719e-09	3.490445733201428011e-13
8.600000000000065891e-07	1.841320605619833906e+00	1.961867813114630158e-08	3.865231774058128246e-13	1.857929418074740990e+00	-2.215713040932970696e-09	3.524646929915731496e-13
8.700000000000064934e-07	1.837825275337537922e+00	2.098290254842760036e-08	3.912721145761028910e-13	1.854820403640202064e+00	-2.441860368218047279e-09	3.559402374858656136e-13
8.800000000000063976e-07	1.834333029812813987e+00	2.202960189766315179e-08	3.961049502774278435e-13	1.851715454972612918e+00	-2.671430575859534877e-09	3.594722914661194355e-13
8.900000000000063019e-07	1.830843747029113899e+00	2.283468321521383067e-08	4.010229307077926682e-13	1.848614257005555039e+00	-2.899153614249740915e-09	3.630619589543601197e-13
9.000000000000062061e-07	1.827357343451051941e+00	2.369945543814212083e-08	4.060273106422226234e-13	1.845516531313375008e+00	-3.166103565364762781e-09	3.667103637609622913e-13
9.100000000000061104e-07	1.823873771400396082e+00	2.506999909199339811e-08	4.111193535710118577e-13	1.842422033609562027e+00	-3.566745465748214513e-09	3.704186499170439214e-13
9.200000000000060147e-07	1.820393016628659044e+00	2.760543199553840955e-08	4.163003318695658949e-13	1.839330551444944950e+00	-4.254888100009112005e-09	3.741879821104190861e-13
9.300000000000059189e-07	1.816915096068072000e+00	3.204413100354430118e-08	4.215715270030479051e-13	1.836241902087500044e+00	-5.455205785519173671e-09	3.780195461254865475e-13
9.400000000000058232e-07	1.813440055744456103e+00	3.913361286142461304e-08	4.269342297690463037e-13	1.833155930567289094e+00	-7.505345731593757571e-09	3.819145492876390505e-13
9.500000000000057274e-07	1.809967968837254082e+00	4.957838047948749527e-08	4.323897405816407110e-13	1.830072507871814969e+00	-1.071589708412790299e-08	3.858742209125888518e-13
9.600000000000056317e-07	1.806498933873353030e+00	1.490974948273476570e-08	4.379393698002076595e-13	1.826991529278386039e+00	1.364145539529073415e-08	3.898998127610639644e-13
9.700000000000055359e-07	1.803033073042694001e+00	2.523841984737890923e-08	4.435844381061758163e-13	1.823912912811475051e+00	4.966171694941491683e-09	3.939925994997941868e-13
9.800000000000054402e-07	1.799570530624782005e+00	3.923554805968437297e-08	4.493262769316318588e-13	1.820836597814172952e+00	-6.219982077464168667e-09	3.981538791680870631e-13
9.900000000000053444e-07	1.796111471516318892e+00	5.797463401335291569e-08	4.551662289426268500e-13	1.817762543623882898e+00	-2.047964087565034892e-08	4.023849736520875250e-13
1.000000000000005249e-06	1.792656079851032924e+00	8.288150135359241196e-08	4.611056485809874659e-13	1.814690728343292037e+00	-3.860276347522013784e-08	4.066872291660213635e-13
1.010000000000005153e-06	1.789204557703695908e+00	1.158191274073449178e-07	4.671459026679598323e-13	1.811621147698557976e+00	-6.157254013233107438e-08	4.110620167413885009e-13
1.020000000000005057e-06	1.785757123871023033e+00	1.591522607918714997e-07	4.732883710730894572e-13	1.808553813977286984e+00	-9.065462471312925349e-08	4.155107327246155259e-13
1.030000000000004961e-06	1.782314012722856944e+00	2.159129828613875055e-07	4.795344474517288818e-13	1.805488755039660109e+00	-1.274614100381134492e-07	4.200347992836185974e-13
1.040000000000004866e-06	1.778875473117639938e+00	2.899951728878751676e-07	4.858855400544864160e-13	1.802426013396573046e+00	-1.739210783109597225e-07	4.246356649239557654e-13
1.050000000000004770e-06	1.775441767376777946e+00	3.861366842000759887e-07	4.923430726118208812e-13	1.799365645349290110e+00	-2.324894113710688488e-07	4.293148050150040106e-13
1.060000000000004674e-06	1.772013170312888075e+00	5.103002213738409206e-07	4.989084852970832049e-13	1.796307720185458034e+00	-3.061889617692586538e-07	4.340737223269205806e-13
1.070000000000004578e-06	1.768589968307507920e+00	6.695562115839920417e-07	5.055832357710027926e-13	1.793252319426956953e+00	-3.985834152903648130e-07	4.389139475789053075e-13
1.080000000000004483e-06	1.765172458434209890e+00	8.722544291052637135e-07	5.123688003106093299e-13	1.790199536125302915e+00	-5.139344269670576333e-07	4.438370399994689089e-13
1.090000000000004387e-06	1.761760947623357998e+00	8.054900495328333422e-07	5.192666750260256616e-13	1.787149474200748100e+00	-5.700620042215822051e-07	4.488445878989821741e-13
1.100000000000004291e-06	1.758355751865269934e+00	1.092037323687058553e-06	5.262783771646385912e-13	1.784102247821581111e+00	-7.143691164317458022e-07	4.539382092575063840e-13
1.110000000000004196e-06	1.754957195448590079e+00	1.484184319795696917e-06	5.334054465130935813e-13	1.781057980820315079e+00	-8.954947071363022210e-07	4.591195523232135001e-13
1.120000000000004100e-06	1.751565610231293091e+00	2.014040757730250021e-06	5.406494468891778952e-13	1.778016806143899009e+00	-1.124156377025782851e-06	4.643902962290513811e-13
1.130000000000004004e-06	1.748181334941665943e+00	2.719125924440096675e-06	5.480119677334894683e-13	1.774978865335127942e+00	-1.414179591043273352e-06	4.697521516235649252e-13
1.140000000000003908e-06	1.744804714507099952e+00	3.642441796256656966e-06	5.554946257999242773e-13	1.771944308042814997e+00	-1.782787128814918966e-06	4.752068613186375098e-13
1.150000000000003813e-06	1.741436099408598004e+00	4.833133915785730461e-06	5.630990669472829035e-13	1.768913291558420031e+00	-2.251056097632569941e-06	4.807562009546525486e-13
1.160000000000003717e-06	1.738075845059174007e+00	6.347353212394869497e-06	5.708269680337254751e-13	1.765885980377005060e+00	-2.844105780460667140e-06	4.864019796840887980e-13
1.170000000000003621e-06	1.734724311204459024e+00	8.249322707368485848e-06	5.786800389153782604e-13	1.762862545780601087e+00	-3.591447212272318327e-06	4.921460408744455575e-13
1.180000000000003525e-06	1.731381861344017947e+00	1.061242598165326436e-05	5.866600245504614266e-13	1.759843165442183111e+00	-4.527503280578341705e-06	4.979902628315955551e-13
1.190000000000003430e-06	1.728048862172032907e+00	1.352018391216595899e-05	5.947687072096749735e-13	1.756828023048629950e+00	-5.691952786038537808e-06	5.039365595445002374e-13
1.200000000000003334e-06	1.724725683036127943e+00	1.706735339817627009e-05	6.030079087938594514e-13	1.753817307941119008e+00	-7.130283939256662440e-06	5.099868814524980427e-13
1.210000000000003238e-06	1.721412695413270022e+00	2.136101322125817873e-05	6.113794932591778398e-13	1.750811214771631041e+00	-8.894154156115296900e-06	5.161432162362213426e-13
1.220000000000003142e-06	1.718110272401770056e+00	2.652192551023777625e-05	6.198853691502524727e-13	1.747809943174188918e+00	-1.104196643192604439e-05	5.224075896333875695e-13
1.230000000000003047e-06	1.714818788228549939e+00	3.268659304045856321e-05	6.285274922412513563e-13	1.744813697449755008e+00	-1.363923305713742237e-05	5.287820662806461287e-13
1.240000000000002951e-06	1.711538617770890003e+00	4.000986276235062570e-05	6.373078682846272172e-13	1.741822686263599929e+00	-1.675923424007638469e-05	5.352687505827710423e-13
1.250000000000002855e-06	1.708270136092012947e+00	4.866878715179117905e-05	6.462285558672255426e-13	1.738837122354202069e+00	-2.048337453015570920e-05	5.418697876105405627e-13
1.260000000000002759e-06	1.705013717989934063e+00	5.886757181981226207e-05	6.552916693730079428e-13	1.735857222252741972e+00	-2.490240579227757741e-05	5.485873640286600442e-13
1.270000000000002664e-06	1.701769737559126083e+00	7.755296214477749753e-05	6.644993821011470319e-13	1.732883206012469923e+00	-3.145781522361398413e-05	5.554237090612637736e-13
1.280000000000002568e-06	1.698538567764126039e+00	9.247141452234189667e-05	6.738539292480710008e-13	1.729915296946340941e+00	-3.699180472170024480e-05	5.623810954649022208e-13
1.290000000000002472e-06	1.695320580025841961e+00	1.099095638523717969e-04	6.833576114604032667e-13	1.726953721374230089e+00	-4.342020534317901214e-05	5.694618405780373369e-13
1.300000000000002376e-06	1.692116143818761964e+00	1.302532765370923123e-04	6.930127980355480224e-13	1.723998708376436984e+00	-5.085221330953680272e-05	5.766683073717440889e-13
1.310000000000002281e-06	1.688925626279909054e+00	1.539415562286056507e-04	7.028219304435043879e-13	1.721050489554772911e+00	-5.939981229650595626e-05	5.840029055522062044e-13
1.320000000000002185e-06	1.685749391828899046e+00	1.814632086752102297e-04	7.127875259041342792e-13	1.718109298799957108e+00	-6.916909055000313876e-05	5.914680927001075842e-13
1.330000000000002089e-06	1.682587801799005911e+00	2.133458619731162407e-04	7.229121810609615059e-13	1.715175372064924986e+00	-8.024111766365939408e-05	5.990663754509804639e-13
1.340000000000001993e-06	1.679441214079107070e+00	2.501321227023470045e-04	7.331985757494513140e-13	1.712248947143572897e+00	-9.262645560397280624e-05	6.068003107184466069e-13
1.350000000000001898e-06	1.676309982766414963e+00	2.923408571927141992e-04	7.436494768574533180e-13	1.709330263454525989e+00	-1.061488366891384107e-04	6.146725069628342807e-13
1.360000000000001802e-06	1.673194457829948023e+00	3.404085895713039925e-04	7.542677422755591269e-13	1.706419561829567000e+00	-1.201132103141058457e-04	6.226856255094054721e-13
1.370000000000001706e-06	1.670094984784668890e+00	3.946097954806923602e-04	7.650563249349816778e-13	1.703517084306360951e+00	-1.321064282388137933e-04	6.308423819296583497e-13
1.380000000000001610e-06	1.667011904376205944e+00	4.279591987319403008e-04	7.760182767482545783e-13	1.700623073923138051e+00	-1.857570717275319988e-04	6.391455466701664847e-13
1.390000000000001515e-06	1.663945552276866913e+00	4.901887344522692013e-04	7.871567535292156539e-13	1.697737774525668097e+00	-2.155238950245814294e-04	6.475979490082920481e-13
1.400000000000001419e-06	1.660896258791094038e+00	5.568773552977445687e-04	7.984750182265577443e-13	1.694861430562244919e+00	-2.494101213447752507e-04	6.562024753409137106e-13
1.410000000000001323e-06	1.657864348571775892e+00	6.510683186517359465e-04	8.099764459054531592e-13	1.691994286896248978e+00	-2.821070125630818423e-04	6.649620726733958081e-13
1.420000000000001227e-06	1.654850140350796917e+00	7.937108980878361834e-04	8.216645282511620509e-13	1.689136588614343015e+00	-3.198107404643355336e-04	6.738797498372517191e-13
1.430000000000001132e-06	1.651853946677350971e+00	9.274011551812064331e-04	8.335428777851841129e-13	1.686288580839770068e+00	-3.694127566311394221e-04	6.829585789879832726e-13
1.440000000000001036e-06	1.648876073663015029e+00	1.082407771987816845e-03	8.456152325823361970e-13	1.683450508547990054e+00	-4.267785401071609802e-04	6.922016976538926206e-13
1.450000000000000940e-06	1.645916820746629927e+00	1.261179778866256072e-03	8.578854609082444916e-13	1.680622616384499057e+00	-4.931682018640772035e-04	7.016123103304799369e-13
1.460000000000000844e-06	1.642976480464632072e+00	1.466111141834957167e-03	8.703575659152503739e-13	1.677805148485447040e+00	-5.699956625320630726e-04	7.111936903999524804e-13
1.470000000000000749e-06	1.640055338233761040e+00	1.699466621922421719e-03	8.830356904082530098e-13	1.674998348300543061e+00	-6.588220235927326821e-04	7.209491820629641572e-13
1.480000000000000653e-06	1.637153672144908922e+00	1.963316947057537100e-03	8.959241216675711729e-13	1.672202458418218018e+00	-7.613408514880959594e-04	7.308822023365539687e-13
1.490000000000000557e-06	1.634271752768224006e+00	2.259495094403518242e-03	9.090272963256361242e-13	1.669417720393040039e+00	-8.793553260752330712e-04	7.409962431197336355e-13
1.500000000000000462e-06	1.631409842969480106e+00	2.589586269747136144e-03	9.223498052943150739e-13	1.666644374575311005e+00	-1.014747112643491411e-03	7.512948733279219532e-13
1.510000000000000366e-06	1.628568197737763956e+00	2.954963612411804115e-03	9.358963987395795253e-13	1.663882659942842013e+00	-1.169438233837991796e-03	7.617817410975501555e-13
1.520000000000000270e-06	1.625747064024515964e+00	3.356881191308569174e-03	9.496719911000264094e-13	1.661132813934875996e+00	-1.345346979708138052e-03	7.724605760618796323e-13
1.530000000000000174e-06	1.622946680593944979e+00	3.796628978448877284e-03	9.636816661456916583e-13	1.658395072288193051e+00	-1.544342217044550498e-03	7.833351916989543002e-13
1.540000000000000079e-06	1.620167277884817958e+00	4.275748763142630041e-03	9.779306820732224682e-13	1.655669668875382916e+00	-1.768199869075041996e-03	7.944094877525874070e-13
1.549999999999999983e-06	1.617409077883618096e+00	4.796686713337627340e-03	9.924244766371839840e-13	1.652956835545331904e+00	-2.018665312389417502e-03	8.056874527206031085e-13
1.559999999999999887e-06	1.614672294009094955e+00	5.361104681770741641e-03	1.007168672287152009e-12	1.650256801965966913e+00	-2.296924705360111132e-03	8.171731664551316343e-13
1.569999999999999791e-06	1.611957131008084021e+00	5.974174118023452620e-03	1.022169081384701345e-12	1.647569795469286946e+00	-2.604635550793971306e-03	8.288708027406593337e-13
1.579999999999999696e-06	1.609263784862662083e+00	6.640573963143114183e-03	1.037431711361910884e-12	1.644896040898752965e+00	-2.942878814582081809e-03	8.407846320781767489e-13
1.589999999999999600e-06	1.606592442710724100e+00	7.283246137716929171e-03	1.052962770133606160e-12	1.642235760458881977e+00	-3.316064055532229066e-03	8.529190244936137083e-13
1.599999999999999504e-06	1.603943282766741918e+00	8.030168305309391338e-03	1.068768670640751650e-12	1.639589173568299030e+00	-3.718998277122882636e-03	8.652784522015755704e-13
1.609999999999999408e-06	1.601316474274723012e+00	8.833454732931551520e-03	1.084856036979646666e-12	1.636956496713610099e+00	-4.155252620944964621e-03	8.778674928503061234e-13
1.619999999999999313e-06	1.598712177451727001e+00	9.695674093424715492e-03	1.101231709058608284e-12	1.634337943307538898e+00	-4.625818039548617276e-03	8.906908323304604379e-13
1.629999999999999217e-06	1.596130543451925066e+00	1.061693217497105407e-02	1.117902747917693659e-12	1.631733723549068094e+00	-5.131915957668702066e-03	9.037532679031728684e-13
1.639999999999999121e-06	1.593571714339452994e+00	1.159300260928913980e-02	1.134876440898857743e-12	1.629144044286571003e+00	-5.675120089632695007e-03	9.170597113478641977e-13
1.649999999999999025e-06	1.591035823071679900e+00	1.261297384036339127e-02	1.152160306782273140e-12	1.626569108883866965e+00	-6.257453561328940421e-03	9.306151921764271982e-13
1.659999999999998930e-06	1.588522993492790025e+00	1.365648203104670617e-02	1.169762100878012089e-12	1.624009117089348919e+00	-6.881431488515540873e-03	9.444248609111695220e-13
