# wavelength [m]	effective refractive index	transmission [dB/m]	effective mode area [m]	effective refractive index	transmission [dB/m]	effective mode area [m]	
5.500000000000095572e-07	1.992692937366169037e+00	-4.773420959438796930e-14	4.855297226433192127e-13	1.994429534941503990e+00	-7.569970612443370545e-14	4.839832469607271729e-13
5.600000000000094614e-07	1.989747769462214100e+00	-4.435906346145143583e-14	4.882764429347039316e-13	1.991569925086623005e+00	-1.027008751879262888e-13	4.864703555142619724e-13
5.700000000000093657e-07	1.986876395251133909e+00	-7.473537865788038854e-14	4.910544655760261678e-13	1.988786333655842897e+00	-1.287377167848657319e-13	4.889781549479892901e-13
5.800000000000092699e-07	1.984072302299427992e+00	-3.124420991632762456e-13	4.938643920247436710e-13	1.986072249100742981e+00	-2.777263103673555745e-13	4.915071296133681805e-13
5.900000000000091742e-07	1.981329587453555918e+00	-4.778242596771800362e-13	4.967068189685044160e-13	1.983421768191409917e+00	-3.601763087576676733e-13	4.940577564407698761e-13
6.000000000000090785e-07	1.978642890531572940e+00	-4.725204586111364208e-13	4.995823391917482481e-13	1.980829529719112969e+00	-4.088748458186129858e-13	4.966305059766651385e-13
6.100000000000089827e-07	1.976007336360612987e+00	-5.723283513994136010e-13	5.024915423597850449e-13	1.978290656544672954e+00	-4.884318618092674689e-13	4.992258433212487294e-13
6.200000000000088870e-07	1.973418483970857951e+00	1.463849094227643237e-12	5.054350157297062683e-13	1.975800704803144958e+00	1.884295869644713969e-12	5.018442289783488100e-13
6.300000000000087912e-07	1.970872281945609039e+00	3.220853738287859635e-13	5.084133447963863659e-13	1.973355619264423932e+00	-2.892982399659871228e-14	5.044861196277741223e-13
6.400000000000086955e-07	1.968365029082719042e+00	-2.494763372353846730e-11	5.114271138806889658e-13	1.970951694005014909e+00	5.477380010022325110e-13	5.071519688290840407e-13
6.500000000000085997e-07	1.965893339651920924e+00	-3.024372016988277315e-11	5.144769066661221093e-13	1.968585537675525021e+00	5.911327369971247671e-13	5.098422276644236239e-13
6.600000000000085040e-07	1.963454112639976046e+00	-3.782863785811709813e-11	5.175633066893308079e-13	1.966254042755755993e+00	7.222812724483520376e-13	5.125573453273677651e-13
6.700000000000084082e-07	1.961044504465156990e+00	-9.681847764196082863e-13	5.206868977893331593e-13	1.963954358278970913e+00	-5.993295204629092514e-13	5.152977696635620781e-13
6.800000000000083125e-07	1.958661904717863056e+00	-9.527555369547521865e-13	5.238482645195313157e-13	1.961683865582074970e+00	-7.213169449819186654e-13	5.180639476685043775e-13
6.900000000000082168e-07	1.956303914547171896e+00	-1.725181837664173315e-12	5.270479925263719893e-13	1.959440156701566016e+00	-7.295137284476230772e-13	5.208563259469671726e-13
7.000000000000081210e-07	1.953968327366478963e+00	5.778250179583452648e-12	5.302866688977562989e-13	1.957221015088375093e+00	-1.076772870804081733e-10	5.236753511381032723e-13
7.100000000000080253e-07	1.951653111596310053e+00	6.182303388068723383e-12	5.335648824841588165e-13	1.955024398359715088e+00	-1.254435741609294780e-10	5.265214703101994571e-13
7.200000000000079295e-07	1.949356395200724013e+00	6.959551326109496915e-12	5.368832241950117730e-13	1.952848422844349896e+00	-1.470637959617325064e-10	5.293951313272087703e-13
7.300000000000078338e-07	1.947076451806095010e+00	7.356854242328795792e-12	5.402422872725837310e-13	1.950691349710073075e+00	-1.702076551598567599e-10	5.322967831912182361e-13
7.400000000000077380e-07	1.944811688218873069e+00	7.707869440153584127e-12	5.436426675453701890e-13	1.948551572490013095e+00	-1.985116306318637976e-10	5.352268763623467242e-13
7.500000000000076423e-07	1.942560633182647045e+00	8.471616793662365476e-12	5.470849636627938631e-13	1.946427605848092934e+00	-2.302110031139680818e-10	5.381858630586957657e-13
7.600000000000075466e-07	1.940321927235054922e+00	-1.586318682480447010e-12	5.505697773128245758e-13	1.944318075444203986e+00	3.316322157475488254e-12	5.411741975383448348e-13
7.700000000000074508e-07	1.938094313542787051e+00	-1.722288855264512115e-12	5.540977134238829173e-13	1.942221708777327027e+00	5.876611581171755744e-12	5.441923363644377944e-13
7.800000000000073551e-07	1.935876629607724997e+00	-1.866937975247565062e-12	5.576693803523783060e-13	1.940137326899689985e+00	9.610487531659426702e-12	5.472407386567823198e-13
7.900000000000072593e-07	1.933667799750542038e+00	-1.983139434967287719e-12	5.612853900569737902e-13	1.938063836908243021e+00	1.306953015417703433e-11	5.503198663289056040e-13
8.000000000000071636e-07	1.931466828289142956e+00	-2.545824511701424095e-12	5.649463582606160079e-13	1.936000225130902974e+00	1.931933646488558437e-11	5.534301843136798864e-13
8.100000000000070678e-07	1.929272793339241954e+00	1.862116337913998295e-12	5.686529046012564408e-13	1.933945550934810909e+00	-1.116209042535573249e-12	5.565721607778676781e-13
8.200000000000069721e-07	1.927084841172798102e+00	-8.264286388362456203e-13	5.724056527720776123e-13	1.931898941092379918e+00	2.685651994350074007e-12	5.597462673268081697e-13
8.300000000000068763e-07	1.924902181077448926e+00	-5.167830893262140461e-12	5.762052306520171797e-13	1.929859584648254023e+00	7.362640207128106076e-12	5.629529792000965396e-13
8.400000000000067806e-07	1.922724080666575963e+00	-1.168138076610895235e-11	5.800522704271974829e-13	1.927826728236827991e+00	1.478989035450258106e-11	5.661927754590982860e-13
8.500000000000066849e-07	1.920549861595264973e+00	-2.207731301932707125e-11	5.839474087039381864e-13	1.925799671805618951e+00	2.626152989656626930e-11	5.694661391670729552e-13
8.600000000000065891e-07	1.918378895642345983e+00	-6.776160350691933486e-10	5.878912866139142407e-13	1.923777764704643012e+00	5.017106510207807541e-11	5.727735575625390607e-13
8.700000000000064934e-07	1.916210601123141011e+00	-9.416995226527106289e-10	5.918845499117816719e-13	1.921760402106474919e+00	7.568331255684218439e-11	5.761155222265392524e-13
8.800000000000063976e-07	1.914044439601247927e+00	-2.339067881297310301e-10	5.959278490661961267e-13	1.919747021725308977e+00	9.673650980621561772e-11	5.794925292443106065e-13
8.900000000000063019e-07	1.911879912871184972e+00	-1.586270466109726740e-11	6.000218393440451420e-13	1.917737100806842898e+00	1.643580447412990735e-10	5.829050793618818708e-13
9.000000000000062061e-07	1.909716560186573986e+00	-9.899544689882235253e-11	6.041671808887173847e-13	1.915730153363705890e+00	2.399458888760935474e-10	5.863536781381027382e-13
9.100000000000061104e-07	1.907553955711283056e+00	-2.205629068106017637e-10	6.083645387925984884e-13	1.913725727633821982e+00	3.475619411537616465e-10	5.898388360924209963e-13
9.200000000000060147e-07	1.905391706173154898e+00	-3.927734701273146034e-10	6.126145831641982959e-13	1.911723403741365068e+00	4.980490996046176700e-10	5.933610688488793035e-13
9.300000000000059189e-07	1.903229448702143056e+00	-6.321889789316841116e-10	6.169179891901270023e-13	1.909722791542133979e+00	7.076138516244892379e-10	5.969208972766242156e-13
9.400000000000058232e-07	1.901066848836366896e+00	-9.645733701643746725e-10	6.212754371922810835e-13	1.907723528636865007e+00	9.961473798529020895e-10	6.005188476272668374e-13
9.500000000000057274e-07	1.898903598681364047e+00	-1.415273026985804790e-09	6.256876126804568093e-13	1.905725278537766076e+00	1.390477274385122426e-09	6.041554516693764124e-13
9.600000000000056317e-07	1.896739415209153012e+00	-2.023140703078167279e-09	6.301552064007045651e-13	1.903727728974893063e+00	1.923918156164718136e-09	6.078312468203687785e-13
9.700000000000055359e-07	1.894574038685088002e+00	-2.829425988079685260e-09	6.346789143795890723e-13	1.901730590330366955e+00	2.641444329498419168e-09	6.115467762760347538e-13
9.800000000000054402e-07	1.892407231211594931e+00	-3.900415305719569514e-09	6.392594379646120856e-13	1.899733594189519925e+00	3.596941448754219919e-09	6.153025891379379668e-13
9.900000000000053444e-07	1.890238775378964897e+00	-5.311136708328736114e-09	6.438974838610482846e-13	1.897736491999157948e+00	4.859266352120325699e-09	6.190992405388751939e-13
1.000000000000005249e-06	1.888068473014230975e+00	-7.151362333228993657e-09	6.485937641653565244e-13	1.895739053823966902e+00	6.516054226376547400e-09	6.229372917665991329e-13
1.010000000000005153e-06	1.885896144020055898e+00	-9.541622506946484889e-09	6.533489963953406259e-13	1.893741067193021932e+00	8.672691598044538679e-09	6.268173103859656757e-13
1.020000000000005057e-06	1.883721625296258972e+00	-1.262908758495915978e-08	6.581639035173608108e-13	1.891742336028990001e+00	1.145819969510119146e-08	6.307398703596893536e-13
1.030000000000004961e-06	1.881544769737270029e+00	-1.659400435568601980e-08	6.630392139706675744e-13	1.889742679653376944e+00	1.503771670143264315e-08	6.347055521678112594e-13
1.040000000000004866e-06	1.879365445299461035e+00	-2.166497002375722886e-08	6.679756616891290096e-13	1.887741931861731892e+00	1.960495285837682982e-08	6.387149429260960385e-13
1.050000000000004770e-06	1.877183534132790932e+00	-2.810262543320460138e-08	6.729739861204479136e-13	1.885739940063271058e+00	2.540011827602786790e-08	6.427686365033753140e-13
1.060000000000004674e-06	1.874998931771661992e+00	-3.625918155691602544e-08	6.780349322431772519e-13	1.883736564479826070e+00	3.271455845446275967e-08	6.468672336380674662e-13
1.070000000000004578e-06	1.872811546380430903e+00	-4.653224219520779577e-08	6.831592505816071882e-13	1.881731677399574032e+00	4.189763283021416595e-08	6.510113420539124385e-13
1.080000000000004483e-06	1.870621298049323977e+00	-5.943490383551234098e-08	6.883476972187472361e-13	1.879725162481278078e+00	5.337668213867297834e-08	6.552015765750560670e-13
1.090000000000004387e-06	1.868428118136876037e+00	-7.557828831074654634e-08	6.936010338076141637e-13	1.877716914105201917e+00	6.766523194480663030e-08	6.594385592405769321e-13
1.100000000000004291e-06	1.866231948655413087e+00	-9.570448760709669132e-08	6.989200275809632815e-13	1.875706836767200958e+00	8.537914994533524768e-08	6.637229194185318662e-13
1.110000000000004196e-06	1.864032741696262097e+00	-1.207295627535008651e-07	7.043054513596898991e-13	1.873694844512681090e+00	1.072658429045385683e-07	6.680552939196397715e-13
1.120000000000004100e-06	1.861830458891813977e+00	-1.505027986075076366e-07	7.097580835601481365e-13	1.871680860407572089e+00	1.344963716763810452e-07	6.724363271106378773e-13
1.130000000000004004e-06	1.859625070911621103e+00	-1.888985637704928061e-07	7.152787082003108558e-13	1.869664816043486111e+00	1.676349448527337310e-07	6.768666710274224181e-13
1.140000000000003908e-06	1.857416556990086010e+00	-2.362441478559437983e-07	7.208681149055312478e-13	1.867646651074641007e+00	2.081844656188660404e-07	6.813469854880599633e-13
1.150000000000003813e-06	1.855204904483420902e+00	-2.944398506511016468e-07	7.265270989134916791e-13	1.865626312784216090e+00	2.576541293069339064e-07	6.858779382056772747e-13
1.160000000000003717e-06	1.852990108453749896e+00	-3.657323571263729286e-07	7.322564610789065647e-13	1.863603755678036045e+00	3.178217994938612736e-07	6.904602049013541939e-13
1.170000000000003621e-06	1.850772171278419975e+00	-4.527481191666001379e-07	7.380570078781916175e-13	1.861578941103642082e+00	3.907701586501463742e-07	6.950944694170450038e-13
1.180000000000003525e-06	1.848551102282711023e+00	-5.585312523183454760e-07	7.439295514141875212e-13	1.859551836892952004e+00	4.789066214217080217e-07	6.997814238286604404e-13
1.190000000000003430e-06	1.846326917394295108e+00	-6.865773322619734809e-07	7.498749094212846744e-13	1.857522417026866046e+00	5.850184246162820421e-07	7.045217685592143280e-13
1.200000000000003334e-06	1.844099638817898956e+00	-8.413526734207876064e-07	7.558939052711602412e-13	1.855490661320265966e+00	7.065531246411889464e-07	7.093162124922830324e-13
1.210000000000003238e-06	1.841869294728780027e+00	-1.031172903462225069e-06	7.619873679792871498e-13	1.853456555126050898e+00	8.601898829412897915e-07	7.141654730857392609e-13
1.220000000000003142e-06	1.839635918983685059e+00	-1.260326741554258914e-06	7.681561322127067835e-13	1.851420089056845963e+00	1.044531919219860712e-06	7.190702764857233540e-13
1.230000000000003047e-06	1.837399550848104912e+00	-1.535926718060557266e-06	7.744010382990378978e-13	1.849381258723233001e+00	1.265023032040944165e-06	7.240313576411000607e-13
1.240000000000002951e-06	1.835160234738693941e+00	-1.870875105756375606e-06	7.807229322372127023e-13	1.847340064487356992e+00	1.524129417919650173e-06	7.290494604182573132e-13
1.250000000000002855e-06	1.832918019979794089e+00	-2.279486491494759742e-06	7.871226657099816062e-13	1.845296511230877901e+00	1.842158434264671230e-06	7.341253377165709270e-13
1.260000000000002759e-06	1.830672960573175079e+00	-2.771605122597705849e-06	7.936010960989672587e-13	1.843250608136342006e+00	2.222478131485558543e-06	7.392597515841117397e-13
1.270000000000002664e-06	1.828425114980011923e+00	-3.362583910792788614e-06	8.001590865018846886e-13	1.841202368481041018e+00	2.676202365256891433e-06	7.444534733342005292e-13
1.280000000000002568e-06	1.826174545914329927e+00	-4.070065255488981177e-06	8.067975057527763314e-13	1.839151809442560070e+00	3.216100091955299870e-06	7.497072836624814340e-13
1.290000000000002472e-06	1.823921320147138925e+00	-4.914167887448973601e-06	8.135172284453332313e-13	1.837098951915270062e+00	3.856732278588091849e-06	7.550219727646900771e-13
1.300000000000002376e-06	1.821665508320533089e+00	-5.917710780368766632e-06	8.203191349596538090e-13	1.835043820337006970e+00	4.614622222673823364e-06	7.603983404551726334e-13
1.310000000000002281e-06	1.819407184771089980e+00	-7.106372558673545387e-06	8.272041114928368217e-13	1.832986442525315951e+00	5.508362827905320253e-06	7.658371962861944159e-13
1.320000000000002185e-06	1.817146427361971073e+00	-8.508869218188430851e-06	8.341730500936605466e-13	1.830926849522630073e+00	6.558785356826284476e-06	7.713393596680504988e-13
1.330000000000002089e-06	1.814883317323144007e+00	-1.015710365760467030e-05	8.412268487017559222e-13	1.828865075449821909e+00	7.789038772930569795e-06	7.769056599900969228e-13
1.340000000000001993e-06	1.812617939099167907e+00	-1.208632596409651725e-05	8.483664111916243307e-13	1.826801157367575090e+00	9.224720239666793018e-06	7.825369367427248985e-13
1.350000000000001898e-06	1.810350380204071907e+00	-1.433524793712713385e-05	8.555926474218090018e-13	1.824735135145101994e+00	1.089395043090315076e-05	7.882340396402972940e-13
1.360000000000001802e-06	1.808080731082873926e+00	-1.694617815595454103e-05	8.629064732896319128e-13	1.822667051335749910e+00	1.282745746849257241e-05	7.939978287451353541e-13
1.370000000000001706e-06	1.805809084979238976e+00	-1.996518107247809994e-05	8.703088107919128039e-13	1.820596951059008983e+00	1.505864590659206544e-05	7.998291745926470355e-13
1.380000000000001610e-06	1.803535537808971023e+00	-2.344224233475809897e-05	8.778005880919184018e-13	1.818524881888609945e+00	1.762365584595331457e-05	8.057289583175281912e-13
1.390000000000001515e-06	1.801260188038873000e+00	-2.743148537397429801e-05	8.853827395931090249e-13	1.816450893746244022e+00	2.056143526715400362e-05	8.116980717812718764e-13
1.400000000000001419e-06	1.798983136570684982e+00	-3.199146942299543531e-05	8.930562060198476620e-13	1.814375038800619011e+00	2.391387555008298244e-05	8.177374177008654140e-13
1.410000000000001323e-06	1.796704486629737030e+00	-3.718556721548045357e-05	9.008219345057205866e-13	1.812297371371482058e+00	2.772587593799667933e-05	8.238479097788504093e-13
1.420000000000001227e-06	1.794424343658010068e+00	-4.308249527936942912e-05	9.086808786896927615e-13	1.810217947838324903e+00	3.204557826942512427e-05	8.300304728347820653e-13
1.430000000000001132e-06	1.792142815211356099e+00	-4.975694462464262240e-05	9.166339988204858745e-13	1.808136826553470966e+00	3.692454766890335892e-05	8.362860429381015312e-13
1.440000000000001036e-06	1.789860010860554018e+00	-5.729045070844714202e-05	9.246822618697450676e-13	1.806054067759284010e+00	4.241817268249770860e-05	8.426155675425665852e-13
1.450000000000000940e-06	1.787576042095990969e+00	-6.577230296686594336e-05	9.328266416542174112e-13	1.803969733509231954e+00	4.858603170642200532e-05	8.490200056222130864e-13
1.460000000000000844e-06	1.785291022235711900e+00	-7.530084030065138190e-05	9.410681189674492155e-13	1.801883887592576006e+00	5.549244999527205954e-05	8.555003278089828035e-13
1.470000000000000749e-06	1.783005066336645905e+00	-8.598468195840841327e-05	9.494076817214167792e-13	1.799796595462481053e+00	6.320719087627913097e-05	8.620575165320881014e-13
1.480000000000000653e-06	1.780718291108756901e+00	-9.794423507943040511e-05	9.578463250983824932e-13	1.797707924167297078e+00	7.180620233072927520e-05	8.686925661590961165e-13
1.490000000000000557e-06	1.778430814831982953e+00	-1.113130842514073064e-04	9.663850517134982321e-13	1.795617942284857937e+00	8.137251837445258127e-05	8.754064831389116514e-13
1.500000000000000462e-06	1.776142757275736006e+00	-1.262395046472963313e-04	9.750248717884882420e-13	1.793526719859589003e+00	9.199724211965613191e-05	8.822002861466915037e-13
1.510000000000000366e-06	1.773854239620830997e+00	-1.428874608914292043e-04	9.837668033367871457e-13	1.791434328342262017e+00	1.037805954257052272e-04	8.890750062306730636e-13
1.520000000000000270e-06	1.771565384383660957e+00	-1.614374797615226705e-04	9.926118723605882587e-13	1.789340840532229082e+00	1.168328894106927682e-04	8.960316869612151553e-13
1.530000000000000174e-06	1.769276315342475980e+00	-1.820866128070113845e-04	1.001561113060083530e-12	1.787246330521983007e+00	1.312754323807307534e-04	9.030713845818413989e-13
1.540000000000000079e-06	1.766987157465645941e+00	-2.050655493398417524e-04	1.010615568054735163e-12	1.785150873643909897e+00	1.472925354365685758e-04	9.101951681626092091e-13
1.549999999999999983e-06	1.764698036841783058e+00	-2.305087729746676270e-04	1.019776288620212778e-12	1.783054546419079900e+00	1.649186520215633234e-04	9.174041197558032212e-13
1.559999999999999887e-06	1.762409080611526013e+00	-2.586914319303782578e-04	1.029044334933522208e-12	1.780957426507979946e+00	1.843620235434363327e-04	9.246993345537893614e-13
1.569999999999999791e-06	1.760120416901012064e+00	-2.898444366352869936e-04	1.038420776336611763e-12	1.778859592663037059e+00	2.057847751040701003e-04	9.320819210497088180e-13
1.579999999999999696e-06	1.757832174756803978e+00	-3.241872340681322046e-04	1.047906691611610318e-12	1.776761124682838089e+00	2.293594082026371897e-04	9.395530012004126286e-13
1.589999999999999600e-06	1.755544484082252055e+00	-3.619214022240466785e-04	1.057503169270755128e-12	1.774662103367927957e+00	2.552627293930850166e-04	9.471137105921716447e-13
1.599999999999999504e-06	1.753257475575153101e+00	-4.032150956141198196e-04	1.067211307860847001e-12	1.772562610478104927e+00	2.836719272068165222e-04	9.547651986090681692e-13
1.609999999999999408e-06	1.750971280666675067e+00	-4.481855062949946771e-04	1.077032216282459421e-12	1.770462728691104104e+00	3.147584684804643259e-04	9.625086286041926567e-13
1.619999999999999313e-06	1.748686031461408108e+00	-4.968783052379698506e-04	1.086967014124236436e-12	1.768362541562578105e+00	3.486802122425609581e-04	9.703451780737210054e-13
1.629999999999999217e-06	1.746401860678507001e+00	-5.492443630859863545e-04	1.097016832012387787e-12	1.766262133487302100e+00	3.855716247254286407e-04	9.782760388339887641e-13
1.639999999999999121e-06	1.744118901594958082e+00	-6.133854421265954628e-04	1.107182812024640286e-12	1.764161589661078056e+00	4.210490551920560579e-04	9.863024171831324417e-13
1.649999999999999025e-06	1.741837287984544069e+00	-6.811433134237186672e-04	1.117466107886165733e-12	1.762060996045776040e+00	4.656490511230174946e-04	9.944255341522266715e-13
1.659999999999998930e-06	1.739557154067703060e+00	-7.551275151849224689e-04	1.127867885626781963e-12	1.759960439331480941e+00	5.144830177568875812e-04	1.002646625597543728e-12
