# wavelength [m]	effective refractive index	transmission [dB/m]	effective mode area [m]	effective refractive index	transmission [dB/m]	effective mode area [m]	
5.500000000000095572e-07	1.999611003141658072e+00	4.048246704571831239e-11	7.062236905472685532e-13	2.002289085842706040e+00	1.505623760052879554e-10	7.063146520852960758e-13
5.600000000000094614e-07	1.996891699432445044e+00	7.842296688927145699e-11	7.096886896425672493e-13	1.999703755856816034e+00	6.649712911060593219e-11	7.092394044655144148e-13
5.700000000000093657e-07	1.994248690906160970e+00	9.011736607593625243e-11	7.131930847745012522e-13	1.997198349712081988e+00	7.462448099858499617e-11	7.121790571097472758e-13
5.800000000000092699e-07	1.991675425243427000e+00	1.020133097030744618e-10	7.167375265171029803e-13	1.994766324954281078e+00	8.246542762898796070e-11	7.151340475643410576e-13
5.900000000000091742e-07	1.989165959702325903e+00	1.120297790979166212e-10	7.203226575653225131e-13	1.992401747366159048e+00	8.999875379755265425e-11	7.181047994972088708e-13
6.000000000000090785e-07	1.986714894801026032e+00	1.200134461932980146e-10	7.239491136520615058e-13	1.990099224666094013e+00	9.686090804939821438e-11	7.210917240687850638e-13
6.100000000000089827e-07	1.984317316345586946e+00	1.225158759689339183e-10	7.276175243723286148e-13	1.987853848551847102e+00	1.028050225530960360e-10	7.240952211653710045e-13
6.200000000000088870e-07	1.981968744613701094e+00	1.179719649466606260e-10	7.313285139247334076e-13	1.985661143900123049e+00	1.062814230699369521e-10	7.271156805114051265e-13
6.300000000000087912e-07	1.979665089694109925e+00	8.964098830746878696e-11	7.350827017793975492e-13	1.983517024121645989e+00	-1.156961521287382549e-10	7.301534826739455459e-13
6.400000000000086955e-07	1.977402612137014959e+00	-3.201567188957030838e-13	7.388807032803838182e-13	1.981417751827063922e+00	1.000914050622784835e-10	7.332089999757915286e-13
6.500000000000085997e-07	1.975177888200118081e+00	-1.148031848931839990e-12	7.427231301894974850e-13	1.979359904088306976e+00	8.992353625516306328e-11	7.362825973171692890e-13
6.600000000000085040e-07	1.972987779082258086e+00	-1.006757875081748334e-12	7.466105911772988863e-13	1.977340341687328085e+00	7.301791143933453174e-11	7.393746329296605690e-13
6.700000000000084082e-07	1.970829403626233933e+00	4.754134410107445087e-13	7.505436922671091784e-13	1.975356181833852087e+00	4.756834526988004186e-11	7.424854590594918916e-13
6.800000000000083125e-07	1.968700114047637006e+00	4.253648454964466687e-12	7.545230372363313699e-13	1.973404773908902010e+00	1.229517519853700727e-11	7.456154225920326992e-13
6.900000000000082168e-07	1.966597474309556004e+00	6.078898553409177664e-10	7.585492279751360096e-13	1.971483677854013017e+00	1.974074756776747572e-11	7.487648656230293007e-13
7.000000000000081210e-07	1.964519240816331003e+00	7.018491020303692353e-10	7.626228648306276950e-13	1.969590644879253949e+00	7.953676511312024872e-11	7.519341259810610120e-13
7.100000000000080253e-07	1.962463345144469962e+00	7.665680112822187652e-10	7.667445468799563405e-13	1.967723600208229007e+00	1.572403437109328261e-10	7.551235377089576567e-13
7.200000000000079295e-07	1.960427878567182924e+00	7.913637634252559074e-10	7.709148722129957514e-13	1.965880627616467979e+00	2.554117727837931430e-10	7.583334315048591961e-13
7.300000000000078338e-07	1.958411078161335972e+00	7.609045160721473393e-10	7.751344381701409861e-13	1.964059955552033943e+00	3.756769084387817693e-10	7.615641351294557674e-13
7.400000000000077380e-07	1.956411314313442951e+00	6.611438753460758749e-10	7.794038415597233683e-13	1.962259944654970001e+00	5.212054950562444491e-10	7.648159737817656790e-13
7.500000000000076423e-07	1.954427079465038020e+00	4.770402614206462637e-10	7.837236788534664409e-13	1.960479076515915908e+00	6.925742004585487232e-10	7.680892704467537202e-13
7.600000000000075466e-07	1.952456977958008988e+00	1.936774570331766853e-10	7.880945463617246624e-13	1.958715943534504955e+00	8.905313427565274836e-10	7.713843462173884605e-13
7.700000000000074508e-07	1.950499716858101973e+00	-2.061688728803869299e-10	7.925170403901050890e-13	1.956969239755738998e+00	1.118164698493654725e-09	7.747015205937031794e-13
7.800000000000073551e-07	1.948554097649721983e+00	-7.347230254840313062e-10	7.969917573789792804e-13	1.955237752577462018e+00	1.372099121533395218e-09	7.780411117609458495e-13
7.900000000000072593e-07	1.946619008708285969e+00	-1.146999054366474464e-09	8.015192940307397663e-13	1.953520355235234041e+00	8.699294508436731920e-11	7.814034368459320204e-13
8.000000000000071636e-07	1.944693418467587920e+00	-1.535124466207090922e-09	8.061002474039300096e-13	1.951815999982033922e+00	9.380688296289099827e-11	7.847888121702113619e-13
8.100000000000070678e-07	1.942776369209443965e+00	-1.818188329211090873e-09	8.107352150404082790e-13	1.950123711890070943e+00	4.405206014685750427e-09	7.881975534616440462e-13
8.200000000000069721e-07	1.940866971411340014e+00	-2.492251299367820447e-10	8.154247949940413858e-13	1.948442583210457935e+00	-7.952350568399106491e-09	7.916299760670341278e-13
8.300000000000068763e-07	1.938964398595262928e+00	-1.829550999407429484e-10	8.201695859633848777e-13	1.946771768233916067e+00	-9.289805746404541271e-09	7.950863951744847199e-13
8.400000000000067806e-07	1.937067882627315107e+00	-9.030058829645515108e-11	8.249701873118104278e-13	1.945110478602108950e+00	-1.064273452338806312e-08	7.985671259693622318e-13
8.500000000000066849e-07	1.935176709423418018e+00	3.170130113535706229e-11	8.298271991271374581e-13	1.943457979024947102e+00	-1.199995937966842023e-08	8.020724838297434364e-13
8.600000000000065891e-07	1.933290215021268077e+00	1.861065220935978770e-10	8.347412222606442173e-13	1.941813583364002893e+00	-1.335559357821195358e-08	8.056027844888231747e-13
8.700000000000064934e-07	1.931407781983180083e+00	3.782478054643895925e-10	8.397128583572294802e-13	1.940176651046709111e+00	-1.470657055766315193e-08	8.091583441927723644e-13
8.800000000000063976e-07	1.929528836098183930e+00	-7.460880592034369579e-09	8.447427098629006928e-13	1.938546583779676924e+00	-3.902633257142906296e-12	8.127394798496079937e-13
8.900000000000063019e-07	1.927652843355190049e+00	1.887552208188413374e-07	8.498313799209785573e-13	1.936922822532954003e+00	1.204282998543703064e-09	8.163465091770165161e-13
9.000000000000062061e-07	1.925779307161695098e+00	1.297938134995817138e-07	8.549794730190151786e-13	1.935304844769937915e+00	1.466792221408112269e-09	8.199797508217139330e-13
9.100000000000061104e-07	1.923907765786077917e+00	4.150222403540750443e-09	8.601875939857149882e-13	1.933692161900347983e+00	-3.326563316445573518e-09	8.236395245153441968e-13
9.200000000000060147e-07	1.922037790002337987e+00	7.427443012251596292e-10	8.654563484602086849e-13	1.932084316935914980e+00	7.182359181323120128e-09	8.273261511514804156e-13
9.300000000000059189e-07	1.920168980919445101e+00	1.225133687019686435e-09	8.707863430513838514e-13	1.930480882330608106e+00	8.060622348600183497e-09	8.310399529752535856e-13
9.400000000000058232e-07	1.918300967979029936e+00	1.781760858415947641e-09	8.761781851832501426e-13	1.928881457988933068e+00	8.882878340884606267e-09	8.347812536255126500e-13
9.500000000000057274e-07	1.916433407106370002e+00	2.410304679174693782e-09	8.816324829965434656e-13	1.927285669427575066e+00	9.612576254324484892e-09	8.385503782794819496e-13
9.600000000000056317e-07	1.914565979001416895e+00	3.113618594236185862e-09	8.871498453614619563e-13	1.925693166077018903e+00	1.020753929866116669e-08	8.423476537496812033e-13
9.700000000000055359e-07	1.912698387557862034e+00	3.884068023018230763e-09	8.927308818401063046e-13	1.924103619711140967e+00	1.061151150267152946e-08	8.461734085844089699e-13
9.800000000000054402e-07	1.910830358399290052e+00	4.712808153971479216e-09	8.983762026438883340e-13	1.922516722993866001e+00	1.076925426060709035e-08	8.500279731647812737e-13
9.900000000000053444e-07	1.908961637522645027e+00	5.581778097964734042e-09	9.040864185862746736e-13	1.920932188133070095e+00	1.061105441145350076e-08	8.539116797985754059e-13
1.000000000000005249e-06	1.907091990039992968e+00	6.473352841893960315e-09	9.098621410310691890e-13	1.919349745632779936e+00	1.005866063875723851e-08	8.578248628110752986e-13
1.010000000000005153e-06	1.905221199010556088e+00	7.351481003469315678e-09	9.157039818364721669e-13	1.917769143135594101e+00	9.023268026158417434e-09	8.617678586332609738e-13
1.020000000000005057e-06	1.903349064355609022e+00	8.168643418219249263e-09	9.216125532951985780e-13	1.916190144347962976e+00	7.417616509668019164e-09	8.657410058874823207e-13
1.030000000000004961e-06	1.901475401849560987e+00	8.866911006726046113e-09	9.275884680708322239e-13	1.914612528041635953e+00	5.141211594829225300e-09	8.697446454708258160e-13
1.040000000000004866e-06	1.899600042181164072e+00	9.361086401889013829e-09	9.336323391306842580e-13	1.913036087125222995e+00	2.093905944580234263e-09	8.737791206364288411e-13
1.050000000000004770e-06	1.897722830079271894e+00	9.547291284982835028e-09	9.397447796753344016e-13	1.911460627780320998e+00	-1.827543752131784475e-09	8.778447770727427100e-13
1.060000000000004674e-06	1.895843623498091102e+00	9.293307681720414947e-09	9.459264030651211234e-13	1.909885968657113908e+00	-6.689849671913155010e-09	8.819419629811309344e-13
1.070000000000004578e-06	1.893962292857326091e+00	2.281285878832058878e-07	9.521778228569334053e-13	1.908311940124896910e+00	3.219043105106810688e-08	8.860710292029785710e-13
1.080000000000004483e-06	1.892078720332982966e+00	2.722915306304422846e-07	9.584996522946230562e-13	1.906738383573272078e+00	4.217030124038037321e-08	8.902323290980313411e-13
1.090000000000004387e-06	1.890192799195004936e+00	3.253006058911791453e-07	9.648925048451045873e-13	1.905165150760175008e+00	5.467468232174620892e-08	8.944262188995044087e-13
1.100000000000004291e-06	1.888304433188175091e+00	3.890055417634837733e-07	9.713569937196238259e-13	1.903592103203227026e+00	7.020454238416465159e-08	8.986530576050892182e-13
1.110000000000004196e-06	1.886413535953040954e+00	4.655825083365281581e-07	9.778937318832244491e-13	1.902019111611118030e+00	8.933694843991719984e-08	9.029132070910280823e-13
1.120000000000004100e-06	1.884520030483971098e+00	5.575764824356035188e-07	9.845033319673455271e-13	1.900446055352156050e+00	1.127397251601916493e-07	9.072070321816768201e-13
1.130000000000004004e-06	1.882623848621510998e+00	6.679026621738133975e-07	9.911864061808782008e-13	1.898872821957175105e+00	1.411445134870751968e-07	9.115349007180524027e-13
1.140000000000003908e-06	1.880724930576636034e+00	7.998649288442960774e-07	9.979435662198961647e-13	1.897299306654367967e+00	1.753920371177503795e-07	9.158971836255182792e-13
1.150000000000003813e-06	1.878823224484543086e+00	9.571145783325123745e-07	1.004775423176258066e-12	1.895725411933709914e+00	2.164206414589565679e-07	9.202942549806270726e-13
1.160000000000003717e-06	1.876918685985885071e+00	1.143637589816889405e-06	1.011682587445403521e-12	1.894151047138890043e+00	2.652398083571465219e-07	9.247264920773047227e-13
1.170000000000003621e-06	1.875011277833513068e+00	1.363681099367385409e-06	1.018665668633449589e-12	1.892576128084795917e+00	3.229980890857651797e-07	9.291942754922920643e-13
1.180000000000003525e-06	1.873100969522901948e+00	1.621694334545818141e-06	1.025725275463957054e-12	1.891000576698752988e+00	3.909285744947850674e-07	9.336979891500465970e-13
1.190000000000003430e-06	1.871187736944643909e+00	1.922286183597685679e-06	1.032862015684543025e-12	1.889424320683896097e+00	4.704309196989263872e-07	9.382380203870703190e-13
1.200000000000003334e-06	1.869271562057434943e+00	2.270138704491224775e-06	1.040076495973634094e-12	1.887847293203100074e+00	5.630123175527486587e-07	9.428147600158005428e-13
1.210000000000003238e-06	1.867352432580196009e+00	2.670107935138795400e-06	1.047369321847562404e-12	1.886269432582136085e+00	6.703823093310682899e-07	9.474286023879944277e-13
1.220000000000003142e-06	1.865430341701983963e+00	3.127285971306601935e-06	1.054741097568331575e-12	1.884690682030669917e+00	7.944563786999544888e-07	9.520799454578568352e-13
1.230000000000003047e-06	1.863505287808516986e+00	3.647198277705245553e-06	1.062192426052280698e-12	1.883110989379980005e+00	9.374030377927410156e-07	9.567691908446889610e-13
1.240000000000002951e-06	1.861577274224172962e+00	4.236143523378223499e-06	1.069723908779854601e-12	1.881530306836223021e+00	1.101667853297164924e-06	9.614967438953822746e-13
1.250000000000002855e-06	1.859646308968442074e+00	4.901748575181124160e-06	1.077336145706869341e-12	1.879948590748244053e+00	1.290026769731582089e-06	9.662630137465473362e-13
1.260000000000002759e-06	1.857712404525889927e+00	5.653654775696202348e-06	1.085029735177361378e-12	1.878365801388987011e+00	1.505626367001087875e-06	9.710684133865186174e-13
1.270000000000002664e-06	1.855775577628429929e+00	-8.217160737990593017e-07	1.092805271588404801e-12	1.876781902748354991e+00	-1.709032064261623235e-05	9.759133482877067929e-13
1.280000000000002568e-06	1.853835849050671891e+00	-2.190804736275412846e-06	1.100663353769316035e-12	1.875196862345283044e+00	-2.495874196791833182e-06	9.807982700667792764e-13
1.290000000000002472e-06	1.851893243414014956e+00	-2.665987310570647256e-06	1.108604573279884133e-12	1.873610651032896923e+00	-1.871920707192365278e-06	9.857235766225062979e-13
1.300000000000002376e-06	1.849947789002911014e+00	-3.229125766191139130e-06	1.116629520905934169e-12	1.872023242837747015e+00	-1.179081616657464306e-06	9.906897046583757840e-13
1.310000000000002281e-06	1.847999517590207974e+00	-3.894879381689279233e-06	1.124738785700750112e-12	1.870434614791349093e+00	-4.041593814234380885e-07	9.956970873495840145e-13
1.320000000000002185e-06	1.846048464271448974e+00	-4.679968380367199950e-06	1.132932954632875019e-12	1.868844746777714061e+00	4.656916788729843247e-07	1.000746162090865845e-12
1.330000000000002089e-06	1.844094667307693891e+00	-5.603394564452191692e-06	1.141212612518529204e-12	1.867253621388355045e+00	1.443576776771436810e-06	1.005837370558285864e-12
1.340000000000001993e-06	1.842138167976270946e+00	-6.686566123887905355e-06	1.149578341957935708e-12	1.865661223785306966e+00	2.543366032800724064e-06	1.010971158770993813e-12
1.350000000000001898e-06	1.840179010428961037e+00	-7.953479695264328376e-06	1.158030723275978170e-12	1.864067541571710063e+00	3.780038272662798772e-06	1.016147977152841456e-12
1.360000000000001802e-06	1.838217241557174919e+00	-9.430800410585134583e-06	1.166570334467384763e-12	1.862472564669497954e+00	5.169974297088668985e-06	1.021368280593964325e-12
1.370000000000001706e-06	1.836252910863640952e+00	-1.114802375297875293e-05	1.175197751146858651e-12	1.860876285203707070e+00	6.731114506924609856e-06	1.026632528512510675e-12
1.380000000000001610e-06	1.834286070340267916e+00	-1.313752351087031613e-05	1.183913546504387824e-12	1.859278697393089930e+00	8.483108956463695504e-06	1.031941184916313092e-12
1.390000000000001515e-06	1.832316774351745003e+00	-1.543463872910233914e-05	1.192718291266039846e-12	1.857679797446575964e+00	1.044741774382040796e-05	1.037294718464739832e-12
1.400000000000001419e-06	1.830345079524575036e+00	-1.807777972766689000e-05	1.201612553660581802e-12	1.856079583465291005e+00	1.264731756239611410e-05	1.042693602530600485e-12
1.410000000000001323e-06	1.828371044641188048e+00	-2.110842201198425875e-05	1.210596899392253217e-12	1.854478055349777943e+00	1.510788536546202341e-05	1.048138315262235007e-12
1.420000000000001227e-06	1.826394730538833056e+00	-2.457123768076202027e-05	1.219671891619851671e-12	1.852875214712113028e+00	1.785591481655399932e-05	1.053629339645726144e-12
1.430000000000001132e-06	1.824416200012973999e+00	-2.851416494187868940e-05	1.228838090942652553e-12	1.851271064792658905e+00	2.091994325325774229e-05	1.059167163567280890e-12
1.440000000000001036e-06	1.822435517724902976e+00	-3.298847172318600864e-05	1.238096055393344707e-12	1.849665610381145076e+00	2.432995980491366847e-05	1.064752279875829230e-12
1.450000000000000940e-06	1.820452750113340956e+00	-3.804902552628051943e-05	1.247446340438142514e-12	1.848058857741869954e+00	2.811730883892769018e-05	1.070385186445748106e-12
1.460000000000000844e-06	1.818467965309761958e+00	-4.375447083529856670e-05	1.256889498984701455e-12	1.846450814542744956e+00	3.231460709032878923e-05	1.076066386239875370e-12
1.470000000000000749e-06	1.816481233057261946e+00	-5.016760779945434400e-05	1.266426081397788303e-12	1.844841489788004107e+00	3.695541942536660423e-05	1.081796387372663895e-12
1.480000000000000653e-06	1.814492624632729978e+00	-5.735575959557101528e-05	1.276056635523200091e-12	1.843230893754338018e+00	4.207427123300821179e-05	1.087575703173620226e-12
1.490000000000000557e-06	1.812502212772139965e+00	-6.539144936834532086e-05	1.285781706720124522e-12	1.841619037930279035e+00	4.770641490369909173e-05	1.093404852250939533e-12
1.500000000000000462e-06	1.810510071598794068e+00	-7.435306128482039657e-05	1.295601837902171441e-12	1.840005934958649059e+00	5.388788731780527167e-05	1.099284358555405507e-12
1.510000000000000366e-06	1.808516276554336999e+00	-8.432567997626744802e-05	1.305517569587492991e-12	1.838391598581899933e+00	6.065552353691529828e-05	1.105214751444544327e-12
1.520000000000000270e-06	1.806520904332377997e+00	-9.540223491444068890e-05	1.315529439957994683e-12	1.836776043590184981e+00	6.804734438810861453e-05	1.111196565747015085e-12
1.530000000000000174e-06	1.804524032814512902e+00	-1.074474918787886660e-04	1.325637984754385036e-12	1.835159285771478022e+00	6.315432462829959580e-05	1.117230342701847733e-12
1.540000000000000079e-06	1.802525741008978111e+00	-1.208395192722202339e-04	1.335843738053596307e-12	1.833541341866774976e+00	7.095323260148684176e-05	1.123316626449055819e-12
1.549999999999999983e-06	1.800526108990921026e+00	-1.356313094373023768e-04	1.346147231302090055e-12	1.831922229522376044e+00	7.956006549873477648e-05	1.129455969573248689e-12
1.559999999999999887e-06	1.798525217845289070e+00	-1.519883402671802454e-04	1.356548994125373325e-12	1.830301967249519990e+00	8.901932738944744357e-05	1.135648929443188642e-12
1.569999999999999791e-06	1.796523149611394921e+00	-1.700284390535574731e-04	1.367049554250515297e-12	1.828680574383515056e+00	9.942218772720457453e-05	1.141896069212549022e-12
1.579999999999999696e-06	1.794519987229405977e+00	-1.899238119404845636e-04	1.377649437634134697e-12	1.827058071045349896e+00	1.108385159045251396e-04	1.148197957905705521e-12
1.589999999999999600e-06	1.792515814488540027e+00	-2.118533249815976417e-04	1.388349168588307961e-12	1.825434478105127045e+00	1.233497603756487308e-04	1.154555170474547700e-12
1.599999999999999504e-06	1.790510715976932898e+00	-2.360101415460644865e-04	1.399149269922201294e-12	1.823809817147254986e+00	1.370433661693553306e-04	1.160968287866558213e-12
1.609999999999999408e-06	1.788504777033061988e+00	-2.626008616762883592e-04	1.410050263093884766e-12	1.822184110437311988e+00	1.520124754931514251e-04	1.167437897091710839e-12
1.619999999999999313e-06	1.786498083698619066e+00	-2.918429334698295391e-04	1.421052668373302650e-12	1.820557380890450050e+00	1.683554387590014312e-04	1.173964591289455347e-12
1.629999999999999217e-06	1.784490722672797958e+00	-3.239606699618765391e-04	1.432157005016346264e-12	1.818929652041296086e+00	1.861752209689598848e-04	1.180548969796045074e-12
1.639999999999999121e-06	1.782482781267890060e+00	-3.591796346590983308e-04	1.443363791450199588e-12	1.817300948015271977e+00	2.055782872261193968e-04	1.187191638212050490e-12
1.649999999999999025e-06	1.780474347366123089e+00	-3.977194116808573641e-04	1.454673545470053347e-12	1.815671293501226025e+00	2.266735964005848320e-04	1.193893208470161961e-12
1.659999999999998930e-06	1.778465509377689990e+00	-4.397844032127797096e-04	1.466086784447108428e-12	1.814040713725342924e+00	2.495711614295716683e-04	1.200654298903195461e-12
