# 2022-09-09_13.37.03
# shape = sech2
# FWHM_ps = 0.25
# carrier_nm = 1542
# frep_MHz = 100
# pow_mW = 54.0
# GDD = 0.0
# propa_len = 0.205
# untap_len = 0.01
# taper_len = 0.14
# waist_len = 0.025
# uptap_len = 0.02
# untap_scale = 1.0
# waist_scale = 0.4
# workingDir = Spirou_Fiber_v2
# axis = slow
# window_ps = 50.0
# steps = 200
# points = 40000
# 
# wavelength [nm]	 power spectral density [dB]
600.019406	-80.967665
600.043425	-80.948603
600.067447	-80.932495
600.091469	-80.918764
600.115494	-80.907176
600.139521	-80.897490
600.163550	-80.889461
600.187581	-80.882840
600.211613	-80.877374
600.235648	-80.872807
600.259684	-80.868884
600.283723	-80.865351
600.307763	-80.861956
600.331805	-80.858455
600.355849	-80.854609
600.379895	-80.850190
600.403943	-80.844980
600.427993	-80.838776
600.452045	-80.831386
600.476099	-80.822634
600.500155	-80.812359
600.524212	-80.800419
600.548272	-80.786688
600.572333	-80.771059
600.596397	-80.753446
600.620462	-80.733782
600.644529	-80.712022
600.668599	-80.688143
600.692670	-80.662141
600.716743	-80.634034
600.740818	-80.603859
600.764895	-80.571670
600.788973	-80.537541
600.813054	-80.501556
600.837137	-80.463816
600.861222	-80.424431
600.885308	-80.383520
600.909397	-80.341213
600.933487	-80.297644
600.957579	-80.252953
600.981674	-80.207283
601.005770	-80.160781
601.029868	-80.113593
601.053968	-80.065868
601.078070	-80.017752
601.102174	-79.969387
601.126280	-79.920916
601.150388	-79.872472
601.174498	-79.824187
601.198609	-79.776187
601.222723	-79.728589
601.246839	-79.681509
601.270956	-79.635051
601.295076	-79.589319
601.319197	-79.544406
601.343320	-79.500403
601.367446	-79.457392
601.391573	-79.415453
601.415702	-79.374656
601.439833	-79.335069
601.463966	-79.296754
601.488101	-79.259765
601.512238	-79.224154
601.536376	-79.189967
601.560517	-79.157246
601.584660	-79.126028
601.608804	-79.096348
601.632951	-79.068236
601.657100	-79.041720
601.681250	-79.016825
601.705402	-78.993573
601.729557	-78.971982
601.753713	-78.952069
601.777871	-78.933845
601.802031	-78.917320
601.826193	-78.902499
601.850357	-78.889383
601.874523	-78.877971
601.898691	-78.868256
601.922861	-78.860229
601.947033	-78.853878
601.971206	-78.849185
601.995382	-78.846129
602.019560	-78.844685
602.043739	-78.844819
602.067921	-78.846496
602.092104	-78.849671
602.116289	-78.854293
602.140477	-78.860302
602.164666	-78.867632
602.188857	-78.876205
602.213050	-78.885938
602.237245	-78.896737
602.261442	-78.908502
602.285641	-78.921122
602.309842	-78.934479
602.334045	-78.948446
602.358250	-78.962888
602.382457	-78.977658
602.406665	-78.992603
602.430876	-79.007557
602.455089	-79.022345
602.479303	-79.036784
602.503520	-79.050680
602.527738	-79.063831
602.551958	-79.076028
602.576181	-79.087058
602.600405	-79.096704
602.624631	-79.104749
602.648859	-79.110974
602.673090	-79.115166
602.697322	-79.117116
602.721556	-79.116621
602.745792	-79.113486
602.770029	-79.107529
602.794269	-79.098580
602.818511	-79.086483
602.842755	-79.071100
602.867001	-79.052313
602.891248	-79.030026
602.915498	-79.004164
602.939749	-78.974679
602.964003	-78.941548
602.988258	-78.904774
603.012516	-78.864388
603.036775	-78.820444
603.061036	-78.773024
603.085300	-78.722231
603.109565	-78.668193
603.133832	-78.611057
603.158101	-78.550991
603.182372	-78.488177
603.206645	-78.422816
603.230920	-78.355118
603.255197	-78.285306
603.279476	-78.213609
603.303757	-78.140262
603.328040	-78.065502
603.352325	-77.989567
603.376611	-77.912694
603.400900	-77.835114
603.425191	-77.757058
603.449483	-77.678748
603.473778	-77.600401
603.498074	-77.522225
603.522373	-77.444423
603.546673	-77.367187
603.570975	-77.290700
603.595280	-77.215135
603.619586	-77.140654
603.643894	-77.067408
603.668204	-76.995534
603.692517	-76.925161
603.716831	-76.856404
603.741147	-76.789365
603.765465	-76.724139
603.789785	-76.660807
603.814107	-76.599445
603.838431	-76.540115
603.862757	-76.482873
603.887084	-76.427768
603.911414	-76.374836
603.935746	-76.324111
603.960080	-76.275614
603.984415	-76.229360
604.008753	-76.185356
604.033092	-76.143601
604.057434	-76.104088
604.081778	-76.066804
604.106123	-76.031726
604.130470	-75.998831
604.154820	-75.968088
604.179171	-75.939460
604.203525	-75.912908
604.227880	-75.888386
604.252237	-75.865846
604.276596	-75.845233
604.300957	-75.826489
604.325321	-75.809552
604.349686	-75.794357
604.374053	-75.780835
604.398422	-75.768914
604.422793	-75.758520
604.447166	-75.749578
604.471541	-75.742009
604.495918	-75.735734
604.520297	-75.730672
604.544677	-75.726741
604.569060	-75.723857
604.593445	-75.721934
604.617832	-75.720886
604.642220	-75.720626
604.666611	-75.721066
604.691004	-75.722118
604.715398	-75.723696
604.739795	-75.725712
604.764193	-75.728083
604.788594	-75.730726
604.812996	-75.733560
604.837401	-75.736507
604.861807	-75.739490
604.886216	-75.742437
604.910626	-75.745277
604.935038	-75.747940
604.959453	-75.750363
604.983869	-75.752484
605.008287	-75.754245
605.032707	-75.755591
605.057130	-75.756474
605.081554	-75.756848
605.105980	-75.756672
605.130408	-75.755911
605.154838	-75.754533
605.179270	-75.752514
605.203704	-75.749831
605.228140	-75.746469
605.252578	-75.742417
605.277018	-75.737669
605.301460	-75.732225
605.325904	-75.726089
605.350350	-75.719270
605.374798	-75.711783
605.399247	-75.703646
605.423699	-75.694882
605.448153	-75.685520
605.472609	-75.675590
605.497066	-75.665131
605.521526	-75.654181
605.545988	-75.642786
605.570451	-75.630994
605.594917	-75.618857
605.619385	-75.606431
605.643854	-75.593775
605.668326	-75.580949
605.692799	-75.568018
605.717275	-75.555047
605.741752	-75.542105
605.766232	-75.529259
605.790713	-75.516583
605.815196	-75.504147
605.839682	-75.492026
605.864169	-75.480296
605.888659	-75.469032
605.913150	-75.458314
605.937643	-75.448218
605.962139	-75.438825
605.986636	-75.430213
606.011135	-75.422459
606.035636	-75.415642
606.060140	-75.409837
606.084645	-75.405119
606.109152	-75.401563
606.133661	-75.399242
606.158172	-75.398227
606.182685	-75.398592
606.207201	-75.400406
606.231718	-75.403738
606.256237	-75.408657
606.280758	-75.415229
606.305281	-75.423517
606.329806	-75.433583
606.354333	-75.445484
606.378862	-75.459277
606.403393	-75.475013
606.427926	-75.492742
606.452461	-75.512510
606.476998	-75.534362
606.501537	-75.558340
606.526078	-75.584482
606.550620	-75.612825
606.575165	-75.643401
606.599712	-75.676241
606.624261	-75.711371
606.648812	-75.748814
606.673365	-75.788586
606.697920	-75.830702
606.722476	-75.875172
606.747035	-75.921999
606.771596	-75.971186
606.796159	-76.022728
606.820723	-76.076617
606.845290	-76.132842
606.869859	-76.191383
606.894430	-76.252220
606.919002	-76.315322
606.943577	-76.380658
606.968154	-76.448186
606.992732	-76.517864
607.017313	-76.589638
607.041896	-76.663454
607.066480	-76.739249
607.091067	-76.816955
607.115656	-76.896498
607.140246	-76.977800
607.164839	-77.060774
607.189434	-77.145331
607.214030	-77.231373
607.238629	-77.318798
607.263229	-77.407498
607.287832	-77.497362
607.312437	-77.588274
607.337043	-77.680114
607.361652	-77.772759
607.386262	-77.866083
607.410875	-77.959957
607.435489	-78.054251
607.460106	-78.148832
607.484725	-78.243567
607.509345	-78.338321
607.533968	-78.432962
607.558592	-78.527358
607.583219	-78.621383
607.607847	-78.714913
607.632478	-78.807833
607.657110	-78.900033
607.681745	-78.991410
607.706381	-79.081870
607.731020	-79.171328
607.755660	-79.259706
607.780303	-79.346936
607.804947	-79.432961
607.829594	-79.517734
607.854242	-79.601221
607.878893	-79.683401
607.903545	-79.764264
607.928200	-79.843814
607.952856	-79.922070
607.977515	-79.999059
608.002175	-80.074822
608.026838	-80.149406
608.051502	-80.222868
608.076169	-80.295273
608.100837	-80.366690
608.125508	-80.437195
608.150180	-80.506870
608.174855	-80.575801
608.199531	-80.644075
608.224210	-80.711787
608.248891	-80.779027
608.273573	-80.845886
608.298258	-80.912451
608.322944	-80.978804
608.347633	-81.045018
608.372323	-81.111159
608.397016	-81.177284
608.421710	-81.243441
608.446407	-81.309667
608.471105	-81.375991
608.495806	-81.442431
608.520508	-81.508993
608.545213	-81.575672
608.569920	-81.642449
608.594628	-81.709288
608.619339	-81.776139
608.644051	-81.842931
608.668766	-81.909577
608.693483	-81.975969
608.718201	-82.041985
608.742922	-82.107483
608.767645	-82.172305
608.792369	-82.236279
608.817096	-82.299215
608.841824	-82.360909
608.866555	-82.421140
608.891288	-82.479672
608.916023	-82.536255
608.940759	-82.590624
608.965498	-82.642502
608.990239	-82.691604
609.014981	-82.737636
609.039726	-82.780302
609.064473	-82.819308
609.089222	-82.854362
609.113972	-82.885179
609.138725	-82.911481
609.163480	-82.933005
609.188237	-82.949498
609.212996	-82.960725
609.237756	-82.966466
609.262519	-82.966522
609.287284	-82.960720
609.312051	-82.948911
609.336820	-82.930974
609.361591	-82.906823
609.386364	-82.876404
609.411139	-82.839699
609.435916	-82.796725
609.460695	-82.747533
609.485476	-82.692209
609.510259	-82.630868
609.535044	-82.563654
609.559831	-82.490734
609.584620	-82.412300
609.609411	-82.328561
609.634204	-82.239741
609.658999	-82.146081
609.683796	-82.047833
609.708595	-81.945256
609.733396	-81.838621
609.758199	-81.728202
609.783004	-81.614277
609.807812	-81.497126
609.832621	-81.377027
609.857432	-81.254257
609.882245	-81.129087
609.907061	-81.001783
609.931878	-80.872604
609.956697	-80.741801
609.981519	-80.609619
610.006342	-80.476293
610.031167	-80.342049
610.055995	-80.207106
610.080824	-80.071673
610.105655	-79.935950
610.130489	-79.800126
610.155324	-79.664383
610.180162	-79.528892
610.205001	-79.393814
610.229843	-79.259302
610.254687	-79.125503
610.279532	-78.992552
610.304380	-78.860580
610.329229	-78.729712
610.354081	-78.600064
610.378935	-78.471744
610.403790	-78.344856
610.428648	-78.219493
610.453508	-78.095741
610.478370	-77.973679
610.503233	-77.853376
610.528099	-77.734898
610.552967	-77.618302
610.577837	-77.503640
610.602709	-77.390959
610.627583	-77.280303
610.652459	-77.171710
610.677337	-77.065213
610.702217	-76.960841
610.727099	-76.858619
610.751983	-76.758562
610.776869	-76.660684
610.801757	-76.564990
610.826647	-76.471481
610.851539	-76.380152
610.876434	-76.290995
610.901330	-76.203998
610.926228	-76.119142
610.951128	-76.036408
610.976031	-75.955771
611.000935	-75.877202
611.025842	-75.800668
611.050750	-75.726131
611.075660	-75.653551
611.100573	-75.582882
611.125487	-75.514079
611.150404	-75.447091
611.175323	-75.381867
611.200243	-75.318353
611.225166	-75.256493
611.250090	-75.196230
611.275017	-75.137503
611.299946	-75.080250
611.324877	-75.024403
611.349809	-74.969896
611.374744	-74.916659
611.399681	-74.864620
611.424620	-74.813710
611.449561	-74.763859
611.474504	-74.714998
611.499449	-74.667063
611.524396	-74.619989
611.549345	-74.573714
611.574296	-74.528178
611.599249	-74.483320
611.624205	-74.439084
611.649162	-74.395414
611.674121	-74.352257
611.699082	-74.309561
611.724046	-74.267280
611.749011	-74.225372
611.773979	-74.183800
611.798948	-74.142530
611.823919	-74.101536
611.848893	-74.060795
611.873869	-74.020290
611.898846	-73.980008
611.923826	-73.939942
611.948807	-73.900088
611.973791	-73.860448
611.998777	-73.821029
612.023765	-73.781842
612.048755	-73.742903
612.073747	-73.704233
612.098740	-73.665856
612.123736	-73.627799
612.148734	-73.590094
612.173734	-73.552776
612.198737	-73.515882
612.223741	-73.479452
612.248747	-73.443530
612.273755	-73.408162
612.298765	-73.373397
612.323778	-73.339284
612.348792	-73.305875
612.373808	-73.273220
612.398827	-73.241372
612.423847	-73.210380
612.448870	-73.180294
612.473894	-73.151164
612.498921	-73.123039
612.523950	-73.095964
612.548980	-73.069988
612.574013	-73.045156
612.599048	-73.021512
612.624085	-72.999099
612.649124	-72.977957
612.674165	-72.958122
612.699208	-72.939627
612.724253	-72.922503
612.749300	-72.906774
612.774349	-72.892465
612.799400	-72.879594
612.824453	-72.868180
612.849509	-72.858236
612.874566	-72.849775
612.899625	-72.842805
612.924687	-72.837332
612.949750	-72.833359
612.974816	-72.830884
612.999883	-72.829899
613.024953	-72.830397
613.050025	-72.832363
613.075098	-72.835781
613.100174	-72.840630
613.125252	-72.846889
613.150332	-72.854532
613.175414	-72.863532
613.200498	-72.873858
613.225584	-72.885478
613.250672	-72.898356
613.275762	-72.912456
613.300854	-72.927736
613.325949	-72.944155
613.351045	-72.961669
613.376143	-72.980232
613.401244	-72.999799
613.426346	-73.020319
613.451451	-73.041744
613.476557	-73.064021
613.501666	-73.087099
613.526776	-73.110923
613.551889	-73.135439
613.577004	-73.160595
613.602121	-73.186335
613.627240	-73.212608
613.652361	-73.239362
613.677484	-73.266548
613.702609	-73.294117
613.727736	-73.322022
613.752865	-73.350216
613.777996	-73.378652
613.803130	-73.407285
613.828265	-73.436068
613.853403	-73.464956
613.878542	-73.493905
613.903684	-73.522870
613.928827	-73.551810
613.953973	-73.580683
613.979121	-73.609451
614.004270	-73.638076
614.029422	-73.666523
614.054576	-73.694755
614.079732	-73.722740
614.104890	-73.750444
614.130050	-73.777831
614.155212	-73.804870
614.180377	-73.831526
614.205543	-73.857763
614.230711	-73.883547
614.255882	-73.908839
614.281054	-73.933604
614.306229	-73.957801
614.331405	-73.981391
614.356584	-74.004334
614.381765	-74.026587
614.406947	-74.048109
614.432132	-74.068857
614.457319	-74.088788
614.482508	-74.107858
614.507699	-74.126020
614.532892	-74.143229
614.558087	-74.159437
614.583285	-74.174596
614.608484	-74.188657
614.633685	-74.201572
614.658889	-74.213296
614.684094	-74.223785
614.709302	-74.232996
614.734511	-74.240892
614.759723	-74.247439
614.784937	-74.252605
614.810153	-74.256362
614.835371	-74.258688
614.860591	-74.259562
614.885813	-74.258971
614.911037	-74.256907
614.936263	-74.253370
614.961491	-74.248369
614.986722	-74.241920
615.011954	-74.234048
615.037188	-74.224787
615.062425	-74.214181
615.087664	-74.202280
615.112904	-74.189142
615.138147	-74.174835
615.163392	-74.159433
615.188639	-74.143017
615.213888	-74.125679
615.239139	-74.107515
615.264392	-74.088633
615.289647	-74.069144
615.314904	-74.049170
615.340164	-74.028833
615.365425	-74.008264
615.390689	-73.987594
615.415954	-73.966960
615.441222	-73.946502
615.466492	-73.926360
615.491763	-73.906679
615.517037	-73.887606
615.542313	-73.869289
615.567591	-73.851876
615.592871	-73.835516
615.618153	-73.820356
615.643438	-73.806540
615.668724	-73.794211
615.694012	-73.783508
615.719303	-73.774566
615.744595	-73.767520
615.769890	-73.762500
615.795187	-73.759634
615.820486	-73.759050
615.845786	-73.760868
615.871089	-73.765209
615.896394	-73.772186
615.921701	-73.781912
615.947011	-73.794492
615.972322	-73.810027
615.997635	-73.828615
616.022951	-73.850349
616.048268	-73.875318
616.073588	-73.903609
616.098909	-73.935304
616.124233	-73.970482
616.149559	-74.009216
616.174887	-74.051574
616.200217	-74.097619
616.225549	-74.147407
616.250883	-74.200987
616.276219	-74.258402
616.301558	-74.319690
616.326898	-74.384884
616.352241	-74.454011
616.377585	-74.527096
616.402932	-74.604155
616.428281	-74.685201
616.453632	-74.770239
616.478984	-74.859266
616.504339	-74.952269
616.529697	-75.049226
616.555056	-75.150101
616.580417	-75.254848
616.605780	-75.363412
616.631146	-75.475723
616.656513	-75.591702
616.681883	-75.711256
616.707255	-75.834279
616.732628	-75.960651
616.758004	-76.090231
616.783382	-76.222860
616.808762	-76.358357
616.834144	-76.496517
616.859529	-76.637112
616.884915	-76.779887
616.910303	-76.924567
616.935694	-77.070850
616.961086	-77.218413
616.986481	-77.366906
617.011878	-77.515954
617.037277	-77.665156
617.062678	-77.814083
617.088081	-77.962275
617.113486	-78.109249
617.138893	-78.254496
617.164302	-78.397488
617.189714	-78.537684
617.215127	-78.674534
617.240543	-78.807488
617.265961	-78.936000
617.291380	-79.059537
617.316802	-79.177580
617.342226	-79.289636
617.367652	-79.395242
617.393080	-79.493972
617.418511	-79.585447
617.443943	-79.669343
617.469378	-79.745398
617.494814	-79.813415
617.520253	-79.873269
617.545693	-79.924904
617.571136	-79.968331
617.596581	-80.003628
617.622028	-80.030931
617.647477	-80.050430
617.672929	-80.062365
617.698382	-80.067019
617.723837	-80.064710
617.749295	-80.055787
617.774754	-80.040621
617.800216	-80.019597
617.825680	-79.993106
617.851146	-79.961539
617.876614	-79.925280
617.902084	-79.884699
617.927556	-79.840154
617.953030	-79.791980
617.978507	-79.740496
618.003985	-79.685997
618.029466	-79.628760
618.054949	-79.569038
618.080433	-79.507065
618.105920	-79.443055
618.131409	-79.377203
618.156900	-79.309688
618.182394	-79.240673
618.207889	-79.170309
618.233386	-79.098738
618.258886	-79.026090
618.284388	-78.952492
618.309891	-78.878061
618.335397	-78.802914
618.360905	-78.727164
618.386415	-78.650924
618.411927	-78.574309
618.437442	-78.497438
618.462958	-78.420433
618.488476	-78.343419
618.513997	-78.266529
618.539520	-78.189901
618.565044	-78.113675
618.590571	-78.037999
618.616100	-77.963023
618.641631	-77.888904
618.667165	-77.815804
618.692700	-77.743891
618.718237	-77.673337
618.743777	-77.604320
618.769319	-77.537020
618.794862	-77.471620
618.820408	-77.408303
618.845956	-77.347249
618.871506	-77.288640
618.897058	-77.232655
618.922613	-77.179468
618.948169	-77.129258
618.973728	-77.082197
618.999288	-77.038460
619.024851	-76.998217
619.050416	-76.961634
619.075983	-76.928874
619.101552	-76.900092
619.127123	-76.875437
619.152697	-76.855048
619.178272	-76.839061
619.203849	-76.827604
619.229429	-76.820799
619.255011	-76.818762
619.280595	-76.821602
619.306181	-76.829419
619.331769	-76.842299
619.357359	-76.860318
619.382951	-76.883531
619.408546	-76.911978
619.434142	-76.945682
619.459741	-76.984642
619.485342	-77.028841
619.510945	-77.078237
619.536550	-77.132763
619.562157	-77.192322
619.587766	-77.256780
619.613378	-77.325962
619.638991	-77.399646
619.664607	-77.477555
619.690224	-77.559355
619.715844	-77.644645
619.741466	-77.732960
619.767090	-77.823755
619.792717	-77.916406
619.818345	-78.010200
619.843975	-78.104326
619.869608	-78.197872
619.895243	-78.289820
619.920879	-78.379048
619.946518	-78.464334
619.972159	-78.544368
619.997802	-78.617771
620.023448	-78.683112
620.049095	-78.738939
620.074745	-78.783811
620.100396	-78.816332
620.126050	-78.835198
620.151706	-78.839240
620.177364	-78.827468
620.203024	-78.799120
620.228686	-78.753693
620.254351	-78.690974
620.280017	-78.611044
620.305686	-78.514278
620.331357	-78.401325
620.357030	-78.273078
620.382705	-78.130631
620.408382	-77.975236
620.434061	-77.808262
620.459742	-77.631144
620.485426	-77.445346
620.511112	-77.252327
620.536799	-77.053505
620.562489	-76.850239
620.588181	-76.643806
620.613875	-76.435391
620.639572	-76.226079
620.665270	-76.016854
620.690971	-75.808599
620.716673	-75.602098
620.742378	-75.398045
620.768085	-75.197049
620.793794	-74.999639
620.819505	-74.806272
620.845219	-74.617339
620.870934	-74.433177
620.896652	-74.254068
620.922371	-74.080250
620.948093	-73.911921
620.973817	-73.749246
620.999543	-73.592358
621.025271	-73.441365
621.051002	-73.296352
621.076734	-73.157384
621.102469	-73.024510
621.128206	-72.897763
621.153945	-72.777167
621.179686	-72.662734
621.205429	-72.554469
621.231174	-72.452369
621.256921	-72.356426
621.282671	-72.266626
621.308423	-72.182951
621.334176	-72.105377
621.359932	-72.033880
621.385691	-71.968433
621.411451	-71.909006
621.437213	-71.855569
621.462978	-71.808091
621.488744	-71.766540
621.514513	-71.730885
621.540284	-71.701091
621.566057	-71.677128
621.591832	-71.658960
621.617610	-71.646557
621.643389	-71.639885
621.669171	-71.638912
621.694954	-71.643607
621.720740	-71.653935
621.746528	-71.669865
621.772318	-71.691363
621.798111	-71.718393
621.823905	-71.750922
621.849702	-71.788915
621.875500	-71.832336
621.901301	-71.881149
621.927104	-71.935319
621.952909	-71.994809
621.978717	-72.059576
622.004526	-72.129580
622.030338	-72.204774
622.056151	-72.285109
622.081967	-72.370533
622.107785	-72.460991
622.133605	-72.556428
622.159428	-72.656783
