# wavelength [m]	effective refractive index	transmission [dB/m]	effective mode area [m]	effective refractive index	transmission [dB/m]	effective mode area [m]	
5.500000000000095572e-07	1.995677415956470968e+00	1.895096337266384908e-11	6.323503755623654249e-13	1.998853011960975090e+00	1.009043331165641034e-10	6.306941325577467731e-13
5.600000000000094614e-07	1.992828603809660981e+00	-7.260710793980357846e-11	6.357524844912507965e-13	1.996161914929746040e+00	2.396739485364926489e-11	6.335069473663788559e-13
5.700000000000093657e-07	1.990054652650778966e+00	2.542835096546918474e-11	6.391961704187547457e-13	1.993549844202487931e+00	1.004887079784892561e-10	6.363356400367602821e-13
5.800000000000092699e-07	1.987349036323913909e+00	3.334162215595191901e-11	6.426821195003454647e-13	1.991010279138909045e+00	1.250289133467001582e-10	6.391806668176848754e-13
5.900000000000091742e-07	1.984705838201594963e+00	5.582009540107829878e-11	6.462110110604781473e-13	1.988537306984746955e+00	-4.435670086142333855e-10	6.420424706409234399e-13
6.000000000000090785e-07	1.982119684869809939e+00	6.818759515944763246e-11	6.497835184614133204e-13	1.986125556575724094e+00	-6.022818090434831955e-10	6.449214824739712252e-13
6.100000000000089827e-07	1.979585688158457035e+00	8.324942585928082415e-11	6.534003098820322306e-13	1.983770140386887038e+00	-8.154623069630815994e-10	6.478181225381290346e-13
6.200000000000088870e-07	1.977099394327930026e+00	-3.861070743504339575e-10	6.570620490156544665e-13	1.981466603738015086e+00	-3.065838098050359514e-11	6.507328014123764594e-13
6.300000000000087912e-07	1.974656739411523976e+00	1.782703971007146018e-10	6.607693956937898979e-13	1.979210880154727903e+00	4.006578114576118235e-10	6.536659210301549102e-13
6.400000000000086955e-07	1.972254009868940949e+00	2.091144110717356034e-09	6.645230064531986527e-13	1.976999252040575028e+00	2.883676639511885412e-10	6.566178755850390062e-13
6.500000000000085997e-07	1.969887807835513094e+00	2.548438802714792265e-09	6.683235350307010272e-13	1.974828315944666013e+00	2.142552408409908426e-10	6.595890523569681309e-13
6.600000000000085040e-07	1.967555020359045947e+00	3.375629259685365173e-09	6.721716328265664486e-13	1.972694951816766906e+00	4.664018008107860141e-10	6.625798324587219044e-13
6.700000000000084082e-07	1.965252792105895985e+00	5.094744514270157741e-10	6.760679493001800532e-13	1.970596295731434022e+00	8.472185746049519368e-10	6.655905915235050807e-13
6.800000000000083125e-07	1.962978501093040951e+00	7.088250469222827239e-10	6.800131323487681178e-13	1.968529715637955091e+00	9.964193201984077780e-10	6.686217003285458040e-13
6.900000000000082168e-07	1.960729737066013945e+00	9.625232097567041903e-10	6.840078286184196865e-13	1.966492789755952986e+00	1.162963495268088866e-09	6.716735253724463707e-13
7.000000000000081210e-07	1.958504282195856927e+00	1.278979804081564949e-09	6.880526838055935001e-13	1.964483287289801039e+00	1.345539614457894498e-09	6.747464294002641945e-13
7.100000000000080253e-07	1.956300093813190033e+00	1.669520855973474973e-09	6.921483429161279156e-13	1.962499151179958989e+00	1.544284612266004034e-09	6.778407718890165400e-13
7.200000000000079295e-07	1.954115288935847961e+00	2.144130047668757018e-09	6.962954504979274589e-13	1.960538482647671943e+00	1.759309386348806753e-09	6.809569094948428314e-13
7.300000000000078338e-07	1.951948130378873048e+00	2.715555788239730851e-09	7.004946508475957122e-13	1.958599527321813083e+00	1.989922513910682776e-09	6.840951964659956764e-13
7.400000000000077380e-07	1.949797014263465078e+00	3.396538772126336875e-09	7.047465881932122400e-13	1.956680662764503920e+00	2.235368926543226588e-09	6.872559850251258398e-13
7.500000000000076423e-07	1.947660458765251068e+00	4.202753177903256678e-09	7.090519068552308307e-13	1.954780387235848016e+00	2.494323638305639430e-09	6.904396257237513503e-13
7.600000000000075466e-07	1.945537093962407038e+00	5.154081509182591240e-09	7.134112513871729016e-13	1.952897309558337069e+00	2.766445277272562761e-09	6.936464677716888438e-13
7.700000000000074508e-07	1.943425652661888048e+00	6.268055239185649638e-09	7.178252666976864201e-13	1.951030139959176068e+00	3.049616180326457999e-09	6.968768593437260295e-13
7.800000000000073551e-07	1.941324962096834028e+00	5.382893532133759971e-08	7.222945981650162088e-13	1.949177681783617055e+00	-5.193043720140605934e-09	7.001311478626539767e-13
7.900000000000072593e-07	1.939233936401433045e+00	6.363744061532368050e-08	7.268198916886508342e-13	1.947338823985597100e+00	-5.754058582409443703e-09	7.034096802788923302e-13
8.000000000000071636e-07	1.937151569780718896e+00	7.504339191696497464e-08	7.314017938173066919e-13	1.945512534313116992e+00	-6.343369705643063045e-09	7.067128033031031610e-13
8.100000000000070678e-07	1.935076930302509046e+00	8.831509307491916444e-08	7.360409517741988195e-13	1.943697853115639917e+00	-6.954175688220486865e-09	7.100408636530856994e-13
8.200000000000069721e-07	1.933009154247242956e+00	-4.076422781154350737e-08	7.407380134609048759e-13	1.941893887709255972e+00	1.867881087107769256e-09	7.133942082745219817e-13
8.300000000000068763e-07	1.930947440958943107e+00	-4.609215495758628085e-08	7.454936276950595089e-13	1.940099807242767094e+00	1.931336727361619531e-09	7.167731845395384667e-13
8.400000000000067806e-07	1.928891048146734954e+00	-5.195408857656306323e-08	7.503084439372135010e-13	1.938314838014344899e+00	1.971729511934986242e-09	7.201781404581460018e-13
8.500000000000066849e-07	1.926839287592452044e+00	-5.840574703023887349e-08	7.551831124979007451e-13	1.936538259194021006e+00	1.984646678343584330e-09	7.236094248548519711e-13
8.600000000000065891e-07	1.924791521224312074e+00	-6.551857589782489356e-08	7.601182844935476596e-13	1.934769398912214999e+00	1.962856734919248991e-09	7.270673875475977791e-13
8.700000000000064934e-07	1.922747157521385031e+00	-7.336176471513563323e-08	7.651146118404763316e-13	1.933007630678950983e+00	1.896105987714086485e-09	7.305523795155228323e-13
8.800000000000063976e-07	1.920705648217184924e+00	7.356612037400521111e-08	7.701727473034434180e-13	1.931252370102092053e+00	1.015926699445363249e-08	7.340647530593282224e-13
8.900000000000063019e-07	1.918666485274143074e+00	8.711585546173477304e-08	7.752933442246184367e-13	1.929503071876425890e+00	1.068812635537384757e-08	7.376048619514516096e-13
9.000000000000062061e-07	1.916629198103773080e+00	1.853409999860529856e-08	7.804770568378445452e-13	1.927759227018307042e+00	-8.252608383525803927e-10	7.411730615824441623e-13
9.100000000000061104e-07	1.914593351009818978e+00	2.189754689506118392e-08	7.857245400676043686e-13	1.926020360323277059e+00	-1.185048041060749858e-09	7.447697091062306215e-13
9.200000000000060147e-07	1.912558540834067067e+00	2.574661174032227140e-08	7.910364494320499360e-13	1.924286028026295003e+00	-1.663285515214148509e-09	7.483951635640069620e-13
9.300000000000059189e-07	1.910524394786681901e+00	3.014176172214088999e-08	7.964134410630963430e-13	1.922555815646437072e+00	-2.288525068496568131e-09	7.520497860192645004e-13
9.400000000000058232e-07	1.908490568444523916e+00	3.516106493261002947e-08	8.018561716311961781e-13	1.920829335999552967e+00	-3.088025345487857043e-09	7.557339396802228242e-13
9.500000000000057274e-07	1.906456743902759987e+00	4.088140430476846670e-08	8.073652982818888526e-13	1.919106227364199002e+00	-4.097547466087510852e-09	7.594479900194098972e-13
9.600000000000056317e-07	1.904422628066366086e+00	4.739492614590796795e-08	8.129414785669091380e-13	1.917386151787455972e+00	-5.363796702686995933e-09	7.631923048892826628e-13
9.700000000000055359e-07	1.902387951069532956e+00	5.481083957234247051e-08	8.185853703703032356e-13	1.915668793518632063e+00	-6.928797964406374901e-09	7.669672546342167175e-13
9.800000000000054402e-07	1.900352464812026909e+00	6.324530939303508389e-08	8.242976318298123890e-13	1.913953857559943961e+00	-8.844181826396449742e-09	7.707732121991268786e-13
9.900000000000053444e-07	1.898315941602719992e+00	7.282706753071460672e-08	8.300789212539385353e-13	1.912241068324374016e+00	-1.116531466859122136e-08	7.746105532350858896e-13
1.000000000000005249e-06	1.896278172901298076e+00	8.370476505389400848e-08	8.359298970349009135e-13	1.910530168391721961e+00	-1.394993367023128140e-08	7.784796562021039346e-13
1.010000000000005153e-06	1.894238968150081970e+00	9.602684280513737366e-08	8.418512175579351853e-13	1.908820917354818958e+00	-1.725560677137108332e-08	7.823809024693694579e-13
1.020000000000005057e-06	1.892198153688593898e+00	1.099701969981392916e-07	8.478435411071779117e-13	1.907113090748504991e+00	-2.113657932211266446e-08	7.863146764131433441e-13
1.030000000000004961e-06	1.890155571744160934e+00	1.256987565315643482e-07	8.539075257684846443e-13	1.905406479054708946e+00	-2.563080436032328950e-08	7.902813655125068918e-13
1.040000000000004866e-06	1.888111079492500011e+00	1.433943057864105756e-07	8.600438293294827388e-13	1.903700886777552004e+00	-3.076669820772867923e-08	7.942813604431696687e-13
1.050000000000004770e-06	1.886064548182734946e+00	1.632116858297949415e-07	8.662531091771897803e-13	1.901996131582954996e+00	-3.654691710663428763e-08	7.983150551694681111e-13
1.060000000000004674e-06	1.884015862321736012e+00	8.942911499996359731e-08	8.725360221514463070e-13	1.900292043497634920e+00	-2.750800761293632358e-08	8.023828470374391958e-13
1.070000000000004578e-06	1.881964918913241913e+00	1.000648444035619453e-07	8.788932245993887633e-13	1.898588464162956901e+00	-3.103485549855340494e-08	8.064851368537873101e-13
1.080000000000004483e-06	1.879911626747492015e+00	1.107295354271784024e-07	8.853253720370446811e-13	1.896885246139389913e+00	-3.405593291338118576e-08	8.106223289872457845e-13
1.090000000000004387e-06	1.877855905737515041e+00	1.209675568559526863e-07	8.918331191880381084e-13	1.895182252257709088e+00	-3.616638335970835746e-08	8.147948314463605470e-13
1.100000000000004291e-06	1.875797686298595890e+00	1.301789118758587874e-07	8.984171198385511831e-13	1.893479355013462095e+00	-3.687897170061932812e-08	8.190030559666869962e-13
1.110000000000004196e-06	1.873736908767585030e+00	1.376021964798540245e-07	9.050780267273160788e-13	1.891776436001401107e+00	-3.559044600800740574e-08	8.232474180950232805e-13
1.120000000000004100e-06	1.871673522859208960e+00	1.422974652971175714e-07	9.118164914354814394e-13	1.890073385387013083e+00	-3.159842920711155689e-08	8.275283372727788358e-13
1.130000000000004004e-06	1.869607487156540016e+00	1.431491110712162662e-07	9.186331642767872904e-13	1.888370101412333968e+00	-2.411515881836772636e-08	8.318462369184545514e-13
1.140000000000003908e-06	1.867538768633205004e+00	1.388217312429646520e-07	9.255286941883894159e-13	1.886666489933618962e+00	-1.219947391141682401e-08	8.362015445095034594e-13
1.150000000000003813e-06	1.865467342205008983e+00	1.277466919622345928e-07	9.325037286226094668e-13	1.884962463988564041e+00	5.165393070351821744e-09	8.405946916634745068e-13
1.160000000000003717e-06	1.863393190308842984e+00	1.080882792072720735e-07	9.395589134401695921e-13	1.883257943390937106e+00	2.914382166422486585e-08	8.450261142186829618e-13
1.170000000000003621e-06	1.861316302506959008e+00	7.771528773301488802e-08	9.466948928050692132e-13	1.881552854350724058e+00	6.105012788017083973e-08	8.494962523143155652e-13
1.180000000000003525e-06	1.859236675114785964e+00	3.414181227467667319e-08	9.539123090816795958e-13	1.879847129117957039e+00	1.023542561172077540e-07	8.540055504701707618e-13
1.190000000000003430e-06	1.857154310850674950e+00	-2.546650562075153320e-08	9.612118027343458123e-13	1.878140705648613906e+00	1.547084114409608988e-07	8.585544576659962469e-13
1.200000000000003334e-06	1.855069218505980055e+00	-1.044267964737439794e-07	9.685940122299450277e-13	1.876433527291025971e+00	2.200124553995856036e-07	8.631434274205983101e-13
1.210000000000003238e-06	1.852981412634147951e+00	-2.064893069257602544e-07	9.760595739437254363e-13	1.874725542491429975e+00	3.003827572164606353e-07	8.677729178706027184e-13
1.220000000000003142e-06	1.850890913257438930e+00	-3.359526949646081273e-07	9.836091220689997881e-13	1.873016704517328934e+00	3.981941535179973057e-07	8.724433918491285586e-13
1.230000000000003047e-06	1.848797745590126995e+00	-4.976998559753541175e-07	9.912432885309130209e-13	1.871306971197497893e+00	5.161248926250301675e-07	8.771553169642389275e-13
1.240000000000002951e-06	1.846701939777035895e+00	-6.973122938686000951e-07	9.989627029048304732e-13	1.869596304677485055e+00	6.571438233134435540e-07	8.819091656773382058e-13
1.250000000000002855e-06	1.844603530646304002e+00	-5.016999652659112335e-06	1.006767991927328335e-12	1.867884671189592005e+00	5.344049894905581914e-07	8.867054153053746086e-13
1.260000000000002759e-06	1.842502557475969915e+00	-1.023973309557494338e-06	1.014659781534497538e-12	1.866172040836457935e+00	8.966704848765975772e-07	8.915445483454286042e-13
1.270000000000002664e-06	1.840399063771894106e+00	-1.398770673646867075e-06	1.022638692484288279e-12	1.864458387387097904e+00	1.234359371512254072e-06	8.964270523326112214e-13
1.280000000000002568e-06	1.838293097058816938e+00	-1.859447871479429592e-06	1.030705344703771049e-12	1.862743688085048976e+00	1.632747868415362142e-06	9.013534198633904015e-13
1.290000000000002472e-06	1.836184708681193101e+00	-2.421509551265499561e-06	1.038860354986865197e-12	1.861027923467353906e+00	2.100798420779871762e-06	9.063241488408209691e-13
1.300000000000002376e-06	1.834073953614637986e+00	-3.102716905967701025e-06	1.047104337408835782e-12	1.859311077194006012e+00	2.648775221349558805e-06	9.113397424917091350e-13
1.310000000000002281e-06	1.831960890286810972e+00	-3.923284433156170803e-06	1.055437903289033081e-12	1.857593135887068980e+00	3.288430527430870439e-06	9.164007094453730756e-13
1.320000000000002185e-06	1.829845580407200911e+00	-4.906069797601113814e-06	1.063861661161715900e-12	1.855874088978884950e+00	4.033070144065245772e-06	9.215075638125881944e-13
1.330000000000002089e-06	1.827728088805260054e+00	-6.076738446918553556e-06	1.072376216755364579e-12	1.854153928568833987e+00	4.897614442421846971e-06	9.266608252647136320e-13
1.340000000000001993e-06	1.825608483276311977e+00	-7.463796057974394517e-06	1.080982172981038067e-12	1.852432649288040967e+00	5.898682784170573983e-06	9.318610191130929211e-13
1.350000000000001898e-06	1.823486834434782100e+00	-9.098838820718913948e-06	1.089680129930065849e-12	1.850710248171610894e+00	7.054593823436314625e-06	9.371086763887006149e-13
1.360000000000001802e-06	1.821363215574292038e+00	-1.101656001226625285e-05	1.098470684881658581e-12	1.848986724537907911e+00	8.385404614599144745e-06	9.424043339220468029e-13
1.370000000000001706e-06	1.819237702534125978e+00	-1.325482653305419500e-05	1.107354432320771828e-12	1.847262079874407048e+00	9.912805449406526638e-06	9.477485344234465485e-13
1.380000000000001610e-06	1.817110373571773074e+00	-1.585477316603241222e-05	1.116331963966619572e-12	1.845536317729800979e+00	1.166002920440077260e-05	9.531418265635536759e-13
1.390000000000001515e-06	1.814981309241064045e+00	-1.886079663483332814e-05	1.125403868812396845e-12	1.843809443611909904e+00	1.365176064967166428e-05	9.585847650542972431e-13
1.400000000000001419e-06	1.812850592275645045e+00	-2.232074439931952225e-05	1.134570733176436498e-12	1.842081464891099030e+00	1.591394845221265377e-05	9.640779107301267932e-13
1.410000000000001323e-06	1.810718307477402922e+00	-2.628589408800064366e-05	1.143833140765361887e-12	1.840352390708837049e+00	1.847358074123138394e-05	9.696218306296883620e-13
1.420000000000001227e-06	1.808584541609560947e+00	-3.081122020454673594e-05	1.153191672749524295e-12	1.838622231891126946e+00	2.135860413190761084e-05	9.752170980778890345e-13
1.430000000000001132e-06	1.806449383294171929e+00	-3.595572772629612474e-05	1.162646907851111806e-12	1.836891000866500034e+00	2.459769702993186934e-05	9.808642927683478283e-13
1.440000000000001036e-06	1.804312922913724915e+00	-4.178267471139886701e-05	1.172199422445330494e-12	1.835158711588309899e+00	2.822022721987802862e-05	9.865640008463324646e-13
1.450000000000000940e-06	1.802175252516629023e+00	-4.836034315870504246e-05	1.181849790675039821e-12	1.833425379461087967e+00	3.225641386855642096e-05	9.923168149920713604e-13
1.460000000000000844e-06	1.800036465726333024e+00	-5.576265347999212300e-05	1.191598584579025413e-12	1.831691021270700936e+00	3.673730076084115621e-05	9.981233345046100722e-13
1.470000000000000749e-06	1.797896657653889063e+00	-6.407015361732984991e-05	1.201446374234401957e-12	1.829955655118127966e+00	4.169532672203092659e-05	1.003984165386032056e-12
1.480000000000000653e-06	1.795755924813718929e+00	-7.337105856760521919e-05	1.211393727913408959e-12	1.828219300356616950e+00	4.716472488923133407e-05	1.009899920426248919e-12
1.490000000000000557e-06	1.793614365042023095e+00	-1.074038064471971766e-04	1.221441212586253760e-12	1.826481977531440037e+00	4.180309139233673175e-05	1.015871219293062135e-12
1.500000000000000462e-06	1.791472077420007025e+00	-1.194521136787651800e-04	1.231589392829075812e-12	1.824743708325619052e+00	4.740575421412238051e-05	1.021898688596570646e-12
1.510000000000000366e-06	1.789329162196019896e+00	-1.328848688826284410e-04	1.241838832862302867e-12	1.823004515502707035e+00	5.363913136347943996e-05	1.027982962010750457e-12
1.520000000000000270e-06	1.787185720713879045e+00	-1.478399077865561633e-04	1.252190095602507527e-12	1.821264422857945098e+00	6.056784527413977678e-05	1.034124680334252009e-12
1.530000000000000174e-06	1.785041855341821915e+00	-1.644655747467564590e-04	1.262643743169851647e-12	1.819523455169159920e+00	6.826321835084262206e-05	1.040324491584849216e-12
1.540000000000000079e-06	1.782897669404067909e+00	-1.829206051671969434e-04	1.273200337136091078e-12	1.817781638150608892e+00	7.680308710767295229e-05	1.046583051087265618e-12
1.549999999999999983e-06	1.780753267114483895e+00	-2.035965356668051904e-04	1.283860438791715828e-12	1.816038998409092109e+00	8.633408193674469225e-05	1.052901021561523358e-12
1.559999999999999887e-06	1.778608753512334051e+00	-2.260047102319682620e-04	1.294624609408604743e-12	1.814295563402176903e+00	9.675821235267144176e-05	1.059279073211818862e-12
1.569999999999999791e-06	1.776464234399790953e+00	-2.509938861443659756e-04	1.305493410569509564e-12	1.812551361398504035e+00	1.083556585117250636e-04	1.065717883816021510e-12
1.579999999999999696e-06	1.774319816281423989e+00	-2.785437657908054082e-04	1.316467404445978720e-12	1.810806421439919101e+00	1.211649069429226392e-04	1.072218138815565115e-12
1.589999999999999600e-06	1.772175606305246953e+00	-3.088513463351122965e-04	1.327547154142728013e-12	1.809060773305473102e+00	1.352882319260318832e-04	1.078780531406020963e-12
1.599999999999999504e-06	1.770031712205442087e+00	-3.421176090396803597e-04	1.338733224038175281e-12	1.807314447477091024e+00	1.508333877945320929e-04	1.085405762628123829e-12
1.609999999999999408e-06	1.767888242246600017e+00	-3.785392387623916959e-04	1.350026180144185406e-12	1.805567475106893083e+00	1.679135076869600206e-04	1.092094541459388696e-12
1.619999999999999313e-06	1.765745305169404089e+00	-4.182998475438932094e-04	1.361426590481802572e-12	1.803819887985993908e+00	1.866476324182780280e-04	1.098847584906262834e-12
1.629999999999999217e-06	1.763603010137678950e+00	-4.615585054385071707e-04	1.372935025472782551e-12	1.802071718514778098e+00	2.071612558836424854e-04	1.105665618096818494e-12
1.639999999999999121e-06	1.761461466686766952e+00	-5.084352394605446074e-04	1.384552058346713393e-12	1.800322999674530910e+00	2.295861743739833994e-04	1.112549374373955122e-12
1.649999999999999025e-06	1.759320784673122029e+00	-5.589934130099749945e-04	1.396278265563689975e-12	1.798573765000355928e+00	2.540598336495505970e-04	1.119499595389158140e-12
1.659999999999998930e-06	1.757181074225105055e+00	-6.132196045702631264e-04	1.408114227252094699e-12	1.796824048555323960e+00	2.807236016207774769e-04	1.126517031196781785e-12
