# wavelength [m]	effective refractive index	transmission [dB/m]	effective mode area [m]	effective refractive index	transmission [dB/m]	effective mode area [m]	
5.500000000000095572e-07	1.952847459073820957e+00	8.685601058411949129e-11	2.604262618411962777e-13	1.958242935078980063e+00	-4.895938764091962979e-11	2.543263000553356996e-13
5.600000000000094614e-07	1.948653116280715913e+00	1.529452291750578660e-10	2.630605935148632393e-13	1.954293543017590951e+00	-6.617986537512323230e-11	2.565037494930430063e-13
5.700000000000093657e-07	1.944522063366102893e+00	2.400683584643390518e-10	2.657432697934244819e-13	1.950412238234491058e+00	-9.083241489427037142e-11	2.587126096732038686e-13
5.800000000000092699e-07	1.940448146797538076e+00	3.502832732641563807e-10	2.684753024522240769e-13	1.946592780455546956e+00	-1.234242724459090374e-10	2.609536568815873894e-13
5.900000000000091742e-07	1.936425823159817039e+00	2.607348603988509575e-10	2.712577101469787646e-13	1.942829535536737096e+00	1.760293000685361482e-10	2.632276719637445539e-13
6.000000000000090785e-07	1.932450092916832007e+00	3.709950985890679482e-10	2.740915189679350956e-13	1.939117409274738080e+00	2.301406071967103879e-10	2.655354412914306428e-13
6.100000000000089827e-07	1.928516442518755092e+00	4.879535553584173298e-10	2.769777629310788027e-13	1.935451789564218039e+00	2.860069903132221855e-10	2.678777576627199606e-13
6.200000000000088870e-07	1.924620793664489016e+00	5.990421508365207164e-10	2.799174844132622475e-13	1.931828495711745086e+00	3.320121607568064953e-10	2.702554211440379352e-13
6.300000000000087912e-07	1.920759458718430013e+00	6.872665420834826115e-10	2.829117345369636145e-13	1.928243733905395052e+00	3.676324887134826110e-10	2.726692398609547194e-13
6.400000000000086955e-07	1.916929101436283034e+00	7.417886527059685145e-10	2.859615735098914553e-13	1.924694057994799090e+00	3.805274755951224843e-10	2.751200307439705547e-13
6.500000000000085997e-07	1.913126702284021041e+00	7.645998189233304970e-10	2.890680709239737757e-13	1.921176334865805968e+00	3.523748995389412672e-10	2.776086202346371080e-13
6.600000000000085040e-07	1.909349527741520003e+00	7.492351894014148513e-10	2.922323060178112768e-13	1.917687713801311089e+00	2.767725904941062319e-10	2.801358449567741488e-13
6.700000000000084082e-07	1.905595103072069918e+00	6.971576489063431274e-10	2.954553679062733392e-13	1.914225599309522075e+00	1.379817598770517054e-10	2.827025523569584661e-13
6.800000000000083125e-07	1.901861188114208012e+00	6.236566094168284554e-10	2.987383557805597125e-13	1.910787626976208076e+00	-8.421182467251535623e-11	2.853096013179793174e-13
6.900000000000082168e-07	1.898145755715455962e+00	5.447100127231298792e-10	3.020823790817876783e-13	1.907371641960541986e+00	-3.989784352114173443e-10	2.879578627485244509e-13
7.000000000000081210e-07	1.894446972480819058e+00	4.610189248930602757e-10	3.054885576509415586e-13	1.903975679807536014e+00	-8.227473188105323024e-10	2.906482201520299006e-13
7.100000000000080253e-07	1.890763181553942962e+00	3.862314725592816182e-10	3.089580218578395842e-13	1.900597949294996036e+00	-1.356219541570171728e-09	2.933815701772661235e-13
7.200000000000079295e-07	1.887092887187123980e+00	3.039087654011016029e-10	3.124919127116289976e-13	1.897236817071334958e+00	-2.006814156898111935e-09	2.961588231529835438e-13
7.300000000000078338e-07	1.883434740888769054e+00	2.020774242533876427e-09	3.160913819552076803e-13	1.893890793872895939e+00	-2.684146197841346573e-09	2.989809036086648540e-13
7.400000000000077380e-07	1.879787528964738108e+00	2.662349984633062524e-09	3.197575921460550061e-13	1.890558522137330000e+00	-4.248196631712148428e-09	3.018487507834626799e-13
7.500000000000076423e-07	1.876150161293713037e+00	1.349730581814999907e-10	3.234917167251351178e-13	1.887238764853270023e+00	-1.289980852010248058e-11	3.047633191242582854e-13
7.600000000000075466e-07	1.872521661196999032e+00	-4.283253088229777388e-08	3.272949400767751301e-13	1.883930395506806965e+00	1.746497331633351266e-09	3.077255787758146538e-13
7.700000000000074508e-07	1.868901156280849074e+00	-1.755041535416917644e-07	3.311684575806300862e-13	1.880632389002927951e+00	2.450915401750924049e-09	3.107365160626175248e-13
7.800000000000073551e-07	1.865287870144249904e+00	4.887039947453362042e-09	3.351134756759409162e-13	1.877343813454960042e+00	3.346062979583721731e-09	3.137971339650657649e-13
7.900000000000072593e-07	1.861681114858219077e+00	-1.464021614879289796e-08	3.391312118666265156e-13	1.874063822748269104e+00	4.430937164449615206e-09	3.169084525904732783e-13
8.000000000000071636e-07	1.858080284134163929e+00	2.755653488601225722e-09	3.432228948146772527e-13	1.870791649795582989e+00	3.381078373051279658e-08	3.200715096401208589e-13
8.100000000000070678e-07	1.854484847108162970e+00	2.682292276629113347e-09	3.473897643616542934e-13	1.867526600411199000e+00	4.235669416592163958e-08	3.232873608732921951e-13
8.200000000000069721e-07	1.850894342676965953e+00	2.599552980049154610e-09	3.516330715872643791e-13	1.864268047739773948e+00	4.958996687386584436e-08	3.265570805692879670e-13
8.300000000000068763e-07	1.847308374328713976e+00	2.514558121524658427e-09	3.559540788699814520e-13	1.861015427182808990e+00	5.473723727938607706e-08	3.298817619881257145e-13
8.400000000000067806e-07	1.843726605417894904e+00	2.440232582082461804e-09	3.603540599566460479e-13	1.857768231772430889e+00	5.738631712037177301e-08	3.332625178308351521e-13
8.500000000000066849e-07	1.840148754839725065e+00	2.412780107779961273e-09	3.648343000447032755e-13	1.854526007947747024e+00	5.751121006189539610e-08	3.367004807000490347e-13
8.600000000000065891e-07	1.836574593064048022e+00	2.464826789775548291e-09	3.693960958796193889e-13	1.851288351693884948e+00	5.530605354294581573e-08	3.401968035616152772e-13
8.700000000000064934e-07	1.833003938493309004e+00	2.626115380099384635e-09	3.740407558702196127e-13	1.848054905008372995e+00	5.108881814477392170e-08	3.437526602079215961e-13
8.800000000000063976e-07	1.829436654112869043e+00	2.977488343188188040e-09	3.787696002249349977e-13	1.844825352663149953e+00	4.517053900368384877e-08	3.473692457235858753e-13
8.900000000000063019e-07	1.825872644405396983e+00	3.590455382219549462e-09	3.835839611118954940e-13	1.841599419234003054e+00	3.779573387600192471e-08	3.510477769541727791e-13
9.000000000000062061e-07	1.822311852504010954e+00	4.573680773210717870e-09	3.884851828460089833e-13	1.838376866372114948e+00	2.919347970678150903e-08	3.547894929785520508e-13
9.100000000000061104e-07	1.818754257561491006e+00	6.073794364306917646e-09	3.934746221061557140e-13	1.835157490295094007e+00	1.948318915837804232e-08	3.585956555855306945e-13
9.200000000000060147e-07	1.815199872315194085e+00	8.311485388258900768e-09	3.985536481858215027e-13	1.831941119477124902e+00	8.760364393817733876e-09	3.624675497553985618e-13
9.300000000000059189e-07	1.811648740829455928e+00	1.151169672549422765e-08	4.037236432804500503e-13	1.828727612520020029e+00	-2.919918477600944443e-09	3.664064841469606747e-13
9.400000000000058232e-07	1.808100936398971958e+00	1.606921439397458019e-08	4.089860028149757681e-13	1.825516856188670989e+00	-1.554635947430966557e-08	3.704137915907358400e-13
9.500000000000057274e-07	1.804556559598430976e+00	1.804701530431821630e-08	4.143421358150753515e-13	1.822308763596171000e+00	1.061329261549790155e-08	3.744908295889579464e-13
9.600000000000056317e-07	1.801015736465022110e+00	2.561665800737055367e-08	4.197934653253165160e-13	1.819103272525179005e+00	-1.866133633716636029e-08	3.786389808228226138e-13
9.700000000000055359e-07	1.797478616801835072e+00	3.857220070196912563e-08	4.253414288787400095e-13	1.815900343873519063e+00	-2.391238389488954675e-08	3.828596536681633207e-13
9.800000000000054402e-07	1.793945372591225995e+00	5.594822040990264553e-08	4.309874790202303771e-13	1.812699960213054018e+00	-3.067581661149168339e-08	3.871542827195387828e-13
9.900000000000053444e-07	1.790416196508431979e+00	7.911795793878295754e-08	4.367330838884227291e-13	1.809502124452025074e+00	-3.939297728530942632e-08	3.915243293239658409e-13
1.000000000000005249e-06	1.786891300526455062e+00	1.098761596432910353e-07	4.425797278593142855e-13	1.806306858591826048e+00	-5.069406598890370796e-08	3.959712821247801620e-13
1.010000000000005153e-06	1.783370914604269997e+00	1.504149711282371499e-07	4.485289122554494202e-13	1.803114202570182067e+00	-6.534566233719205023e-08	4.004966576164386050e-13
1.020000000000005057e-06	1.779855285451023006e+00	2.035637374538510076e-07	4.545821561243752770e-13	1.799924213183268895e+00	-8.441447167672746258e-08	4.051020007110597864e-13
1.030000000000004961e-06	1.776344675359649017e+00	2.728347092570927876e-07	4.607409970900283706e-13	1.796736963080123095e+00	-1.092725565773067195e-07	4.097888853174641908e-13
1.040000000000004866e-06	1.772839361103941913e+00	3.624023558398366435e-07	4.670069922807764045e-13	1.793552539823225045e+00	-1.417560502143755802e-07	4.145589149336343082e-13
1.050000000000004770e-06	1.769339632893671022e+00	4.773772975538564137e-07	4.733817193376053287e-13	1.790371045009705897e+00	-1.842690168950207244e-07	4.194137232533926438e-13
1.060000000000004674e-06	1.765845793382778028e+00	6.237256249839680476e-07	4.798667775061937892e-13	1.787192593448065914e+00	-2.399070065931215078e-07	4.243549747883351628e-13
1.070000000000004578e-06	1.762358156726256952e+00	8.084019746401925042e-07	4.864637888161771301e-13	1.784017312385824949e+00	-3.126161739332485040e-07	4.293843655059150520e-13
1.080000000000004483e-06	1.758877047681657979e+00	1.025272006309980011e-06	4.931743993510439154e-13	1.780845340783876019e+00	3.785630251371147347e-06	4.345036234870243978e-13
1.090000000000004387e-06	1.755402800751536985e+00	1.340578829163113232e-06	5.000002806121606973e-13	1.777676828633580897e+00	7.076568114389241595e-06	4.397145095914425605e-13
1.100000000000004291e-06	1.751935759363570932e+00	1.745767695921651995e-06	5.069431309795233991e-13	1.774511936313287075e+00	1.242562693789075411e-05	4.450188181618849654e-13
1.110000000000004196e-06	1.748476275085258935e+00	2.264434699896805087e-06	5.140046772729767115e-13	1.771350833980761097e+00	2.172869637814973107e-05	4.504183777309925142e-13
1.120000000000004100e-06	1.745024706870607067e+00	2.925770033065330844e-06	5.211866764162223919e-13	1.768193700998800910e+00	4.077466028265995469e-05	4.559150517592818057e-13
1.130000000000004004e-06	1.741581420336203889e+00	3.765674733602585101e-06	5.284909172065906633e-13	1.765040725391155085e+00	1.005481118311484271e-04	4.615107394020145174e-13
1.140000000000003908e-06	1.738146787064573928e+00	4.664776552293930880e-06	5.359192221932940486e-13	1.761892103326359926e+00	-2.055071917939284692e-06	4.672073761898927324e-13
1.150000000000003813e-06	1.734721183932750987e+00	6.163448704764694358e-06	5.434734496646618460e-13	1.758748038627411914e+00	-1.097430576232288571e-04	4.730069350638837976e-13
1.160000000000003717e-06	1.731304992464282932e+00	7.834210041919243136e-06	5.511554957520474609e-13	1.755608742303768066e+00	-6.244237091937373000e-05	4.789114270937953121e-13
1.170000000000003621e-06	1.727898598203061908e+00	9.910589061573656929e-06	5.589672966431077557e-13	1.752474432107044899e+00	-4.579449664663041270e-05	4.849229021747352530e-13
1.180000000000003525e-06	1.724502390107520045e+00	1.247364854527388017e-05	5.669108309154275858e-13	1.749345332104488948e+00	-3.746113570797804393e-05	4.910434501590572475e-13
1.190000000000003430e-06	1.721116759963899012e+00	1.561542899449313280e-05	5.749881219863651301e-13	1.746221672271623948e+00	-3.274905286190693044e-05	4.972752016892832854e-13
1.200000000000003334e-06	1.717742101817441913e+00	1.944009146458591553e-05	5.832012406823489895e-13	1.743103688101351079e+00	-3.009290457449321392e-05	5.036203291644324277e-13
1.210000000000003238e-06	1.714378811420496973e+00	2.406500827978199866e-05	5.915523079282790406e-13	1.739991620228374947e+00	-2.884692698183931249e-05	5.100810477367683964e-13
1.220000000000003142e-06	1.711027285696619993e+00	2.962286866544665392e-05	6.000434975578883201e-13	1.736885714067675890e+00	-2.871968590273306252e-05	5.166596163452193759e-13
1.230000000000003047e-06	1.707687922219897070e+00	3.626426561825487287e-05	6.086770392456540088e-13	1.733786219465879075e+00	-2.958324287654861312e-05	5.233583387878119220e-13
1.240000000000002951e-06	1.704361118708787037e+00	4.416166755689534076e-05	6.174552215604436146e-13	1.730693390364471007e+00	-3.139726703463529390e-05	5.301795648351702679e-13
1.250000000000002855e-06	1.701047272533902088e+00	5.351413194322432752e-05	6.263803951412599602e-13	1.727607484473872024e+00	-3.417545393629224562e-05	5.371256913871832104e-13
1.260000000000002759e-06	1.697746780239201003e+00	6.455181281807891524e-05	6.354549759943480665e-13	1.724528762957387995e+00	-3.193283683088585527e-05	5.441991636753755511e-13
1.270000000000002664e-06	1.694460037076189085e+00	7.759639340035116145e-05	6.446814489134804581e-13	1.721457490124862932e+00	-3.597371742055358355e-05	5.514024765186218843e-13
1.280000000000002568e-06	1.691187436550714907e+00	9.282791067427906663e-05	6.540623710172165300e-13	1.718393933133909979e+00	-4.333502373558193826e-05	5.587381755890724089e-13
1.290000000000002472e-06	1.687929369982132943e+00	1.106796336939293502e-04	6.636003754111374755e-13	1.715338361699382030e+00	-5.195828108827459053e-05	5.662088588167763917e-13
1.300000000000002376e-06	1.684686226074534110e+00	1.315649302793107272e-04	6.732981749659290095e-13	1.712291047810118094e+00	-6.202995262170462199e-05	5.738171777559307911e-13
1.310000000000002281e-06	1.681458390499890987e+00	1.559461948297041420e-04	6.831585662147283497e-13	1.709252265452033015e+00	-7.376525889385192271e-05	5.815658390558310442e-13
1.320000000000002185e-06	1.678246245492974964e+00	1.843219892950299693e-04	6.931844333669213044e-13	1.706222290337350955e+00	-8.741277445315374299e-05	5.894576059804901030e-13
1.330000000000002089e-06	1.675050169457944937e+00	2.172024869531807389e-04	7.033787524371794943e-13	1.703201399639491909e+00	-1.032582137646763766e-04	5.974952999893390855e-13
1.340000000000001993e-06	1.671870536586556932e+00	2.550674006035810585e-04	7.137445954882209736e-13	1.700189871733164937e+00	-1.216263887086061867e-04	6.056818023815057215e-13
1.350000000000001898e-06	1.668707716487962012e+00	2.983034761638840180e-04	7.242851349852320546e-13	1.697187985939321964e+00	-1.428806386330888634e-04	6.140200560059206047e-13
1.360000000000001802e-06	1.665562073830108014e+00	3.471189696073885664e-04	7.350036482602925422e-13	1.694196022274671032e+00	-1.674165272110795459e-04	6.225130670398477998e-13
1.370000000000001706e-06	1.662433967992765105e+00	4.014349540556638903e-04	7.459035220847733828e-13	1.691214261205413960e+00	-1.956493741753908904e-04	6.311639068382232007e-13
1.380000000000001610e-06	1.659323752732231982e+00	4.607578533139573699e-04	7.569882573473982555e-13	1.688242983405022102e+00	-2.279916371355311081e-04	6.399757138561337500e-13
1.390000000000001515e-06	1.656231775857790023e+00	5.240432163142061004e-04	7.682614738358953986e-13	1.685282469515771098e+00	-2.648193002515478135e-04	6.489516956470260929e-13
1.400000000000001419e-06	1.653158378917567006e+00	6.484395154089239851e-04	7.797269150200155160e-13	1.682332999914369021e+00	-2.973339255052079473e-04	6.580951309570820462e-13
1.410000000000001323e-06	1.650103896907870071e+00	7.619361296919166613e-04	7.913884534091892884e-13	1.679394854478998944e+00	-3.456147699419103055e-04	6.674093718189966025e-13
1.420000000000001227e-06	1.647068657972629913e+00	8.945662336797222331e-04	8.032500951068379185e-13	1.676468312363343927e+00	-4.018344486657702283e-04	6.768978458730361266e-13
1.430000000000001132e-06	1.644052983135759982e+00	1.048788876114526347e-03	8.153159853089409405e-13	1.673553651770528061e+00	-4.673410057670556394e-04	6.865640586427621679e-13
1.440000000000001036e-06	1.641057186035876025e+00	1.227064353918411871e-03	8.275904134916151180e-13	1.670651149731740004e+00	-5.436521125944053078e-04	6.964115959565045560e-13
1.450000000000000940e-06	1.638081572675246012e+00	1.431776192233136366e-03	8.400778187632788579e-13	1.667761081887666919e+00	-6.324473149639703350e-04	7.064441264471601811e-13
1.460000000000000844e-06	1.635126441181165013e+00	1.665156712992250411e-03	8.527827953024082101e-13	1.664883722273015954e+00	-7.355501889227087113e-04	7.166654041428124088e-13
1.470000000000000749e-06	1.632192081579896925e+00	1.929226768699059732e-03	8.657100978777467786e-13	1.662019343104099045e+00	-8.549010258435685294e-04	7.270792711500004789e-13
1.480000000000000653e-06	1.629278775583206107e+00	2.225762809309268526e-03	8.788646474478376293e-13	1.659168214569477939e+00	-9.925196409408239360e-04	7.376896604312828490e-13
1.490000000000000557e-06	1.626386796387633948e+00	2.556306708088560385e-03	8.922515368365455511e-13	1.656330604623734049e+00	-1.150460285895161345e-03	7.485005986785340727e-13
1.500000000000000462e-06	1.623516408486525009e+00	2.922231058346351149e-03	9.058760364809577200e-13	1.653506778784338049e+00	-1.330760983062268367e-03	7.595162092832172952e-13
1.510000000000000366e-06	1.620667867494897108e+00	3.324868712453857116e-03	9.197436002479210696e-13	1.650696999931763109e+00	-1.535391487314480968e-03	7.707407154047679225e-13
1.520000000000000270e-06	1.617841419987174012e+00	3.765711877115942088e-03	9.338598713152166760e-13	1.647901528112821978e+00	-1.766205669674040472e-03	7.821784431378168922e-13
1.530000000000000174e-06	1.615037303347822917e+00	4.246671902151313328e-03	9.482306881129096153e-13	1.645120620347366058e+00	-2.024906246362374006e-03	7.938338247789307789e-13
1.540000000000000079e-06	1.612255745634892934e+00	4.770377475441899516e-03	9.628620903203017751e-13	1.642354530438433935e+00	-2.313027617913409294e-03	8.057114021930258518e-13
1.549999999999999983e-06	1.609496965456429951e+00	5.340188710437585549e-03	9.777603249164816695e-13	1.639603508785919095e+00	-2.631966676733554951e-03	8.178158302774759784e-13
1.559999999999999887e-06	1.606761171859852011e+00	5.961879933656851274e-03	9.929318522553993708e-13	1.636867802203908928e+00	-2.982929441749746207e-03	8.301518805380333959e-13
1.569999999999999791e-06	1.604048564235933894e+00	6.586931893726527543e-03	1.008383352386588234e-12	1.634147653742157091e+00	-3.383887530963591156e-03	8.427244445536242498e-13
1.579999999999999696e-06	1.601359332226127918e+00	7.291442003649704212e-03	1.024121730585066414e-12	1.631443302509572923e+00	-3.801173106123287813e-03	8.555385384447714973e-13
1.589999999999999600e-06	1.598693655660927027e+00	8.051501168228959379e-03	1.040154124402983730e-12	1.628754983505497078e+00	-4.252940272627925636e-03	8.685993057294038628e-13
1.599999999999999504e-06	1.596051704493054890e+00	8.870114972657088676e-03	1.056487909331632370e-12	1.626082927451395044e+00	-4.740389578418115722e-03	8.819120219145140112e-13
1.609999999999999408e-06	1.593433638751595049e+00	9.748057128750509462e-03	1.073130705135823961e-12	1.623427360628721061e+00	-5.265079747098984006e-03	8.954820983852876436e-13
1.619999999999999313e-06	1.590839608506720015e+00	1.068197006200576234e-02	1.090090382057307145e-12	1.620788504720829026e+00	-5.829042950389135003e-03	9.093150865367246480e-13
1.629999999999999217e-06	1.588269753846516030e+00	1.166192085548779095e-02	1.107375067002561017e-12	1.618166576659475941e+00	-6.434842542119176452e-03	9.234166819906774527e-13
1.639999999999999121e-06	1.585724204865682108e+00	1.266847360711110398e-02	1.124993149702361429e-12	1.615561788476058913e+00	-7.085521491649000164e-03	9.377927288937985899e-13
1.649999999999999025e-06	1.583203081665897960e+00	1.366944262584300802e-02	1.142953288828881579e-12	1.612974347157702937e+00	-7.784394134853980449e-03	9.524492242920444700e-13
1.659999999999998930e-06	1.580706494367611903e+00	1.461661425050597707e-02	1.161264418055438864e-12	1.610404454508379102e+00	-8.534620836749202619e-03	9.673923225764509852e-13
