# wavelength [m]	effective refractive index	transmission [dB/m]	effective mode area [m]	effective refractive index	transmission [dB/m]	effective mode area [m]	
5.500000000000095572e-07	1.985542565374859958e+00	-1.629713418475085770e-13	4.042549403781489828e-13	1.987177760564732054e+00	9.643274665532869384e-16	4.024389059070979664e-13
5.600000000000094614e-07	1.982368773140968932e+00	2.892982399659860421e-15	4.068456682039243816e-13	1.984083113324905945e+00	7.714619732426289196e-15	4.048202502360053508e-13
5.700000000000093657e-07	1.979266518243389061e+00	-9.353976425566986012e-14	4.094686152630735749e-13	1.981061967713481975e+00	-9.643274665532871356e-16	4.072257030351542369e-13
5.800000000000092699e-07	1.976229337994457103e+00	-2.044374229093016714e-13	4.121244307964711663e-13	1.978107856563906086e+00	6.750292265873004625e-15	4.096558094923611946e-13
5.900000000000091742e-07	1.973251378789798949e+00	7.907485225736881898e-14	4.148137613292839458e-13	1.975214920812248032e+00	-2.073304053089572045e-14	4.121111103441412262e-13
6.000000000000090785e-07	1.970327329811027983e+00	6.364561279251649302e-14	4.175372515195687857e-13	1.972377843211347015e+00	-2.709760181014821163e-13	4.145921428302255743e-13
6.100000000000089827e-07	1.967452365074819909e+00	9.643274665532859918e-15	4.202955449284834096e-13	1.969591790391088892e+00	-3.857309866213150120e-15	4.170994415602197609e-13
6.200000000000088870e-07	1.964622092638864004e+00	2.025087679761897995e-14	4.230892847210684662e-13	1.966852362075377059e+00	2.507251413038539098e-14	4.196335393028494070e-13
6.300000000000087912e-07	1.961832509964217985e+00	4.821637332766433114e-15	4.259191143052428354e-13	1.964155546455246926e+00	2.121520426417226531e-14	4.221949677068784279e-13
6.400000000000086955e-07	1.959079964589216072e+00	3.857309866213146965e-15	4.287856779158309564e-13	1.961497680873347971e+00	1.735789439795913334e-14	4.247842579615730194e-13
6.500000000000085997e-07	1.956361119399405935e+00	-6.268128532596370622e-15	4.316896211494313718e-13	1.958875417104209093e+00	2.410818666383210877e-14	4.274019414036253387e-13
6.600000000000085040e-07	1.953672921885357905e+00	-3.278713386281188528e-14	4.346315914553197451e-13	1.956285690622193041e+00	1.253625706519271284e-14	4.300485500765193475e-13
6.700000000000084082e-07	1.951012576869820103e+00	-1.108976586536281478e-14	4.376122385868940390e-13	1.953725693338574931e+00	-3.857309866213150120e-15	4.327246172476169945e-13
6.800000000000083125e-07	1.948377522260954064e+00	-4.339473599489793589e-15	4.406322150176272652e-13	1.951192849364522974e+00	-6.268128532596370622e-15	4.354306778876129282e-13
6.900000000000082168e-07	1.945765407451429008e+00	-3.423362506264182910e-14	4.436921763250311530e-13	1.948684793419743988e+00	1.253625706519271284e-14	4.381672691163699543e-13
7.000000000000081210e-07	1.943174074036480015e+00	-7.328888745805044472e-14	4.467927815457138354e-13	1.946199351559930957e+00	-1.350058453174604080e-14	4.409349306187651051e-13
7.100000000000080253e-07	1.940601538568978102e+00	-1.427204650498888587e-13	4.499346935042821880e-13	1.943734523941067049e+00	2.507251413038539098e-14	4.437342050336743011e-13
7.200000000000079295e-07	1.938045977107925033e+00	-1.171657871862259794e-13	4.531185791184799927e-13	1.941288469376992953e+00	3.857309866213131345e-14	4.465656383189157640e-13
7.300000000000078338e-07	1.935505711349118974e+00	-1.803292362454684330e-13	4.563451096827356976e-13	1.938859491479028918e+00	8.582514452324170922e-14	4.494297800946137794e-13
7.400000000000077380e-07	1.932979196154567036e+00	-1.629713418475085770e-13	4.596149611320132413e-13	1.936446026194214021e+00	9.643274665532859918e-15	4.523271839671761206e-13
7.500000000000076423e-07	1.930465008320970011e+00	-7.801409204416793402e-13	4.629288142876749806e-13	1.934046630582507031e+00	2.121520426417226531e-14	4.552584078358625619e-13
7.600000000000075466e-07	1.927961836447785959e+00	-1.005793547615195005e-12	4.662873550868904697e-13	1.931659972693487104e+00	8.003917972392208540e-14	4.582240141836597304e-13
7.700000000000074508e-07	1.925468471783118085e+00	7.242099273814582928e-13	4.696912747969159715e-13	1.929284822420781920e+00	4.898783530090422303e-13	4.612245703540385532e-13
7.800000000000073551e-07	1.922983799940459981e+00	5.679888777998488971e-13	4.731412702154936029e-13	1.926920043227297930e+00	9.961502729494312860e-13	4.642606488149620455e-13
7.900000000000072593e-07	1.920506793392581901e+00	-2.364048784256026562e-12	4.766380438584663381e-13	1.924564584647528998e+00	1.487957280891466983e-12	4.673328274114016311e-13
8.000000000000071636e-07	1.918036504659976105e+00	-3.585851684379878645e-12	4.801823041355690347e-13	1.922217475484393034e+00	2.255561944267552778e-12	4.704416896074554919e-13
8.100000000000070678e-07	1.915572060121103926e+00	-5.207368319390872208e-12	4.837747655153007168e-13	1.919877817627837935e+00	3.736768932892379656e-12	4.735878247191141835e-13
8.200000000000069721e-07	1.913112654380179078e+00	-7.758014468428123681e-12	4.874161486796889365e-13	1.917544780430969098e+00	5.965329708094537661e-12	4.767718281384998887e-13
8.300000000000068763e-07	1.910657545135610924e+00	-1.313606874940874345e-11	4.911071806696671702e-13	1.915217595586840904e+00	1.408978861378722257e-11	4.799943015504688909e-13
8.400000000000067806e-07	1.908206048498745089e+00	-2.183574898895424769e-11	4.948485950217204720e-13	1.912895552455553094e+00	2.252668961862636315e-11	4.832558531422490502e-13
8.500000000000066849e-07	1.905757534718139912e+00	-3.463189230646628197e-11	4.986411318964232012e-13	1.910577993796912954e+00	3.861552907048815286e-11	4.865570978067937559e-13
8.600000000000065891e-07	1.903311424269567897e+00	-6.273432333707719228e-11	5.024855381994225683e-13	1.908264311868854923e+00	5.946332456966825038e-11	4.898986573404833435e-13
8.700000000000064934e-07	1.900867184276362032e+00	-9.446841160698711574e-11	5.063825676953696371e-13	1.905953944856261906e+00	8.961302281093932282e-11	4.932811606356333077e-13
8.800000000000063976e-07	1.898424325228432963e+00	-1.407344326348002586e-10	5.103329811152510583e-13	1.903646373598514074e+00	1.334957085027860271e-10	4.967052438684003143e-13
8.900000000000063019e-07	1.895982397971758049e+00	-2.093400637542991394e-10	5.143375462576208505e-13	1.901341118587587919e+00	1.974161546208354373e-10	5.001715506824625416e-13
9.000000000000062061e-07	1.893540990943042068e+00	-3.078697404915150344e-10	5.183970380840760461e-13	1.899037737211419996e+00	2.904014305780139194e-10	5.036807323689099567e-13
9.100000000000061104e-07	1.891099727626941007e+00	-4.462632682109926471e-10	5.225122388093889850e-13	1.896735821219921014e+00	4.224641484567148484e-10	5.072334480427235815e-13
9.200000000000060147e-07	1.888658264215478999e+00	-6.433346757917437109e-10	5.266839379866589548e-13	1.894434994393304095e+00	6.102177418448508402e-10	5.108303648161703008e-13
9.300000000000059189e-07	1.886216287451476070e+00	-9.168883412604521027e-10	5.309129325878160900e-13	1.892134910394545066e+00	8.710104618550481208e-10	5.144721579694315826e-13
9.400000000000058232e-07	1.883773512639485892e+00	-1.298751410510829277e-09	5.352000270798201351e-13	1.889835250789489995e+00	1.234067216667306561e-09	5.181595111187541905e-13
9.500000000000057274e-07	1.881329681809531085e+00	-1.823040825024821413e-09	5.395460334968406371e-13	1.887535723219897044e+00	1.732129816714927800e-09	5.218931163823933996e-13
9.600000000000056317e-07	1.878884562020213034e+00	-2.539204886548825620e-09	5.439517715087717741e-13	1.885236059716028034e+00	2.409882303744577837e-09	5.256736745445880212e-13
9.700000000000055359e-07	1.876437943789220908e+00	-3.510685734925660169e-09	5.484180684863217360e-13	1.882936015136783992e+00	3.325445658364647831e-09	5.295018952177784788e-13
9.800000000000054402e-07	1.873989639640267990e+00	-4.816430449281549613e-09	5.529457595630029034e-13	1.880635365726476049e+00	4.549597659086312016e-09	5.333784970033168326e-13
9.900000000000053444e-07	1.871539482756670925e+00	-6.556213653558137642e-09	5.575356876943250417e-13	1.878333907778408030e+00	6.176313945786542306e-09	5.373042076508311220e-13
1.000000000000005249e-06	1.869087325732567972e+00	-8.861288031360506372e-09	5.621887037144299104e-13	1.876031456396306085e+00	8.316470961251438304e-09	5.412797642164292111e-13
1.010000000000005153e-06	1.866633039413712947e+00	-1.188835342218366597e-08	5.669056663904840427e-13	1.873727844345542959e+00	1.111802064590164084e-08	5.453059132199296476e-13
1.020000000000005057e-06	1.864176511820440085e+00	-1.584473251897798134e-08	5.716874424751228242e-13	1.871422920986747895e+00	1.475570299211633634e-08	5.493834108012893718e-13
1.030000000000004961e-06	1.861717647146136079e+00	-2.097765044023436811e-08	5.765349067572241557e-13	1.869116551285151973e+00	1.945447437953520659e-08	5.535130228763454079e-13
1.040000000000004866e-06	1.859256364825095931e+00	-2.762993042828902198e-08	5.814489421113077562e-13	1.866808614889573059e+00	2.548181416986075106e-08	5.576955252920417882e-13
1.050000000000004770e-06	1.856792598664255056e+00	-3.617887911512402680e-08	5.864304395458144600e-13	1.864499005275517929e+00	3.317747613665019030e-08	5.619317039812922642e-13
1.060000000000004674e-06	1.854326296033647070e+00	-4.711596890355537598e-08	5.914802982506840462e-13	1.862187628947274964e+00	4.295551547992805253e-08	5.662223551175687707e-13
1.070000000000004578e-06	1.851857417111050008e+00	-6.105115864012026759e-08	5.965994256444241577e-13	1.859874404694463079e+00	5.532854840947158227e-08	5.705682852693991150e-13
1.080000000000004483e-06	1.849385934176559054e+00	-7.873791261484432715e-08	6.017887374210599708e-13	1.857559262898790919e+00	7.092171560237027618e-08	5.749703115548510338e-13
1.090000000000004387e-06	1.846911830953184896e+00	-1.011080995813502600e-07	6.070491575972708679e-13	1.855242144887127909e+00	9.049854256628847090e-08	5.794292617961640774e-13
1.100000000000004291e-06	1.844435101990030024e+00	-1.293020151776415531e-07	6.123816185600671208e-13	1.852923002327443891e+00	1.150015204579000479e-07	5.839459746746026261e-13
1.110000000000004196e-06	1.841955752084674103e+00	-1.647229595070685667e-07	6.177870611153486842e-13	1.850601796664276044e+00	1.455595217469619575e-07	5.885212998856763527e-13
1.120000000000004100e-06	1.839473795741932038e+00	-2.090573896847413010e-07	6.232664345377385872e-13	1.848278498590862018e+00	1.835480648746905490e-07	5.931560982948716142e-13
1.130000000000004004e-06	1.836989256666132109e+00	-2.643580063405398944e-07	6.288206966219957619e-13	1.845953087555129990e+00	2.306229345343462998e-07	5.978512420939212373e-13
1.140000000000003908e-06	1.834502167284485008e+00	-3.330535719865082159e-07	6.344508137365118799e-13	1.843625551297090936e+00	2.887462097878752140e-07	6.026076149578294908e-13
1.150000000000003813e-06	1.832012568299207000e+00	-4.180219131170301331e-07	6.401577608791803746e-13	1.841295885415332068e+00	3.602358651465892528e-07	6.074261122026927341e-13
1.160000000000003717e-06	1.829520508266273993e+00	-5.226003861913828643e-07	6.459425217361385833e-13	1.838964092960472030e+00	4.478044168648114850e-07	6.123076409444677087e-13
1.170000000000003621e-06	1.827026043198866967e+00	-6.506316476997288246e-07	6.518060887437570183e-13	1.836630184053652082e+00	5.545762999929441679e-07	6.172531202587934955e-13
1.180000000000003525e-06	1.824529236193686010e+00	-8.058511004778204437e-07	6.577494631544012346e-13	1.834294175528248916e+00	6.804998560290040948e-07	6.222634813419847725e-13
1.190000000000003430e-06	1.822030157078496027e+00	-1.002131386670859451e-06	6.637736551062838608e-13	1.831956090593179987e+00	8.366394890999969563e-07	6.273396676733383435e-13
1.200000000000003334e-06	1.819528882079344045e+00	-1.246436342921915267e-06	6.698796836980943240e-13	1.829615958516233043e+00	1.032600428513686452e-06	6.324826351788662292e-13
1.210000000000003238e-06	1.817025493506057021e+00	-1.547062883119522185e-06	6.760685770687016196e-13	1.827273814326038970e+00	1.272002227572010865e-06	6.376933523965106567e-13
1.220000000000003142e-06	1.814520079454698953e+00	-1.915944541890763403e-06	6.823413724825873667e-13	1.824929698531378097e+00	1.563786096042418486e-06	6.429728006431302368e-13
1.230000000000003047e-06	1.812012733525768970e+00	-2.367144495748817683e-06	6.886991164213739692e-13	1.822583656856598067e+00	1.918481841099795746e-06	6.483219741832495546e-13
1.240000000000002951e-06	1.809503554557045035e+00	-2.917105442688589965e-06	6.951428646821924654e-13	1.820235739992043023e+00	2.348399136732441752e-06	6.537418803997683667e-13
1.250000000000002855e-06	1.806992646369997013e+00	-3.584928338747544547e-06	7.016736824832660951e-13	1.817886003358436975e+00	2.867818031512225987e-06	6.592335399667764128e-13
1.260000000000002759e-06	1.804480117528856953e+00	-4.392617111532070533e-06	7.082926445773592516e-13	1.815534506884290078e+00	3.493199846983414506e-06	6.647979870246231835e-13
1.270000000000002664e-06	1.801966081111409990e+00	-5.365294857072156605e-06	7.150008353736838300e-13	1.813181314795409005e+00	4.243379196060330159e-06	6.704362693573546240e-13
1.280000000000002568e-06	1.799450654490704959e+00	-6.531481992054843648e-06	7.217993490688261060e-13	1.810826495415704063e+00	5.139732955165257298e-06	6.761494485727447737e-13
1.290000000000002472e-06	1.796933959126912894e+00	-7.923278462643070828e-06	7.286892897873379554e-13	1.808470120978517892e+00	6.206364368295390788e-06	6.819386002850504779e-13
1.300000000000002376e-06	1.794416120368629963e+00	-9.576601878612587106e-06	7.356717717325613034e-13	1.806112267447768982e+00	7.470231777669103126e-06	6.878048143006283142e-13
1.310000000000002281e-06	1.791897267262928084e+00	-1.153133391831872117e-05	7.427479193484189783e-13	1.803753014348230987e+00	8.961326043648125677e-06	6.937491948066777805e-13
1.320000000000002185e-06	1.789377532373590984e+00	-1.383159161012915527e-05	7.499188674927272244e-13	1.801392444604343890e+00	1.071275703323924069e-05	6.997728605632081860e-13
1.330000000000002089e-06	1.786857051606931979e+00	-1.652586160172650733e-05	7.571857616226985281e-13	1.799030644386993005e+00	1.276090055139493172e-05	7.058769450984657249e-13
1.340000000000001993e-06	1.784335964044660106e+00	-1.966737859869578295e-05	7.645497579933795403e-13	1.796667702967694069e+00	1.514554471079032649e-05	7.120625969080233904e-13
1.350000000000001898e-06	1.781814411783317897e+00	-2.331438172805735400e-05	7.720120238696147959e-13	1.794303712579693011e+00	1.790999211579724174e-05	7.183309796577206294e-13
1.360000000000001802e-06	1.779292539779832039e+00	-2.753064726059213809e-05	7.795737377522152811e-13	1.791938768285552097e+00	2.110130902495698418e-05	7.246832723906566072e-13
1.370000000000001706e-06	1.776770495702719055e+00	-3.238604897786311781e-05	7.872360896191110661e-13	1.789572967850715068e+00	2.477057071020506530e-05	7.311206697384985035e-13
1.380000000000001610e-06	1.774248429788598980e+00	-3.795741697939128520e-05	7.950002811820157965e-13	1.787206411622733970e+00	2.897320439576258526e-05	7.376443821373009315e-13
1.390000000000001515e-06	1.771726494703599997e+00	-4.432958475697847730e-05	8.028675261595234215e-13	1.784839202415694936e+00	3.376950052199473567e-05	7.442556360480882079e-13
1.400000000000001419e-06	1.769204845409336979e+00	-5.159664726225923748e-05	8.108390505670540832e-13	1.782471445399564036e+00	3.922524065783080603e-05	7.509556741824045553e-13
1.410000000000001323e-06	1.766683639033141962e+00	-5.986360636180120280e-05	8.189160930245696458e-13	1.780103247994065940e+00	4.541251222138221718e-05	7.577457557331705974e-13
1.420000000000001227e-06	1.764163034742231906e+00	-6.924072786732990631e-05	8.270999050826183648e-13	1.777734719766818960e+00	5.241223297167308678e-05	7.646271566110409301e-13
1.430000000000001132e-06	1.761643193621569958e+00	-7.986156027743874207e-05	8.353917515674726652e-13	1.775365972335436027e+00	6.030548639957250789e-05	7.716011696863980712e-13
1.440000000000001036e-06	1.759124278555119103e+00	-9.187326990643766020e-05	8.437929109458729787e-13	1.772997119273302946e+00	6.919236762684317660e-05	7.786691050377060684e-13
1.450000000000000940e-06	1.756606454110295923e+00	-1.054404267006559762e-04	8.523046757102610624e-13	1.770628276018805902e+00	7.918066181991133073e-05	7.858322902059109464e-13
1.460000000000000844e-06	1.754089886425358902e+00	-1.207470149275560321e-04	8.609283527849771769e-13	1.768259559787743962e+00	9.039056799410797173e-05	7.930920704555901693e-13
1.470000000000000749e-06	1.751574743099570064e+00	-1.379973017387439629e-04	8.696652639541657057e-13	1.765891089488744070e+00	1.029561592261877580e-04	8.004498090430610415e-13
1.480000000000000653e-06	1.749061193085893029e+00	-1.574155078857251446e-04	8.785167463118642004e-13	1.763522985641426954e+00	1.170264392418931567e-04	8.079068874916146568e-13
1.490000000000000557e-06	1.746549406586098030e+00	-1.792440796859055591e-04	8.874841527350817260e-13	1.761155370297168066e+00	1.327659755262473407e-04	8.154647058743959150e-13
1.500000000000000462e-06	1.744039554948066062e+00	-2.037397219142139367e-04	8.965688523802573765e-13	1.758788366962247052e+00	1.503547866735909649e-04	8.231246831050764258e-13
1.510000000000000366e-06	1.741531810565180027e+00	-2.311666813563935765e-04	9.057722312036740106e-13	1.756422100523234997e+00	1.699871885648185149e-04	8.308882572367158130e-13
1.520000000000000270e-06	1.739026346777641008e+00	-2.617868539952268201e-04	9.150956925065081765e-13	1.754056697174440016e+00	1.918691516562070717e-04	8.387568857691474622e-13
1.530000000000000174e-06	1.736523337775579989e+00	-2.958457658931731935e-04	9.245406575047239287e-13	1.751692284347281081e+00	2.162138443556328954e-04	8.467320459651808313e-13
1.540000000000000079e-06	1.734022958503870004e+00	-3.335540962270218597e-04	9.341085659245751164e-13	1.749328990641443093e+00	2.432348989066737016e-04	8.548152351759899885e-13
1.549999999999999983e-06	1.731525384568501913e+00	-3.750648786438310180e-04	9.438008766238528588e-13	1.746966945757675083e+00	2.731369819529852819e-04	8.630079711760119005e-13
1.559999999999999887e-06	1.729030792144456985e+00	-4.204438176731463677e-04	9.536190682394960716e-13	1.744606280432134948e+00	3.061034562924076189e-04	8.713117925077097988e-13
1.569999999999999791e-06	1.726539357884959047e+00	-4.696401267470015758e-04	9.635646398616535968e-13	1.742247126372133970e+00	3.422806132560258585e-04	8.797282588364776872e-13
1.579999999999999696e-06	1.724051258832014044e+00	-5.222776777963011006e-04	9.736391117333655064e-13	1.739889616193212030e+00	3.818492819411171231e-04	8.882589513166729122e-13
1.589999999999999600e-06	1.721566672330399062e+00	-5.925257717986913593e-04	9.838440260745295042e-13	1.737533883356408015e+00	4.163400577052370883e-04	8.969054729277757205e-13
1.599999999999999504e-06	1.719085775932668092e+00	-6.692205021341663795e-04	9.941809474909146774e-13	1.735180062111217003e+00	4.665632011532919654e-04	9.056694490048083247e-13
1.609999999999999408e-06	1.716608747324325890e+00	-7.557903753631831350e-04	1.004651464237358381e-12	1.732828287431138037e+00	5.229032302117686114e-04	9.145525274423975944e-13
1.619999999999999313e-06	1.714135764232060044e+00	-8.533619375568014722e-04	1.015257188729002023e-12	1.730478694958047958e+00	5.861022877430154161e-04	9.235563792256413371e-13
1.629999999999999217e-06	1.711667004341516085e+00	-9.631166303580487170e-04	1.025999758449139964e-12	1.728131420943757934e+00	6.569617927942345177e-04	9.326826988257150999e-13
1.639999999999999121e-06	1.709202645214439986e+00	-1.086275284981859119e-03	1.036880836814280802e-12	1.725786602193088992e+00	7.363374291282168962e-04	9.419332046357263780e-13
1.649999999999999025e-06	1.706742864206737043e+00	-1.224080495547422110e-03	1.047902114066703926e-12	1.723444376007674084e+00	8.251318510571815402e-04	9.513096394195064431e-13
1.659999999999998930e-06	1.704287838387471998e+00	-1.377778598386607701e-03	1.059065308194209438e-12	1.721104880130464920e+00	9.242853823857554970e-04	9.608137707735725413e-13
