# wavelength [m]	effective refractive index	transmission [dB/m]	effective mode area [m]	effective refractive index	transmission [dB/m]	effective mode area [m]	
5.500000000000095572e-07	1.998862799168974025e+00	-8.369051896719258123e-09	8.611472949266509654e-13	2.002366967360775796e+00	-1.499789578932227846e-10	8.627625935653791176e-13
5.600000000000094614e-07	1.996122828386784009e+00	-4.581877561501736258e-09	8.654045592512773625e-13	1.999800945334442970e+00	1.330822048667893032e-09	8.661879790143887061e-13
5.700000000000093657e-07	1.993459146639080970e+00	-5.641773738547862268e-09	8.697143233458553741e-13	1.997315894323322016e+00	1.373734620916152444e-09	8.696274838264378527e-13
5.800000000000092699e-07	1.990865213508536957e+00	-6.979633451214599009e-09	8.740773849640934068e-13	1.994905284649931110e+00	1.350408503835010563e-09	8.730815765849661558e-13
5.900000000000091742e-07	1.988335098183376948e+00	1.090772976813174594e-09	8.784945313066568397e-13	1.992563194456699938e+00	4.944480112933592883e-09	8.765507074669740673e-13
6.000000000000090785e-07	1.985863413137409994e+00	1.988182867161817813e-09	8.829665398133817781e-13	1.990284243412753007e+00	6.113935459373339676e-09	8.800353102758723609e-13
6.100000000000089827e-07	1.983445256155403014e+00	-5.120020986976622530e-09	8.874941792258183372e-13	1.988063534765400098e+00	-1.233423385361094850e-08	8.835358036049093404e-13
6.200000000000088870e-07	1.981076159514512103e+00	5.139325373043662894e-10	8.920782105219255495e-13	1.985896604547177091e+00	-2.521825294772742876e-09	8.870525922298206823e-13
6.300000000000087912e-07	1.978752045321312103e+00	-1.971220448386572181e-08	8.967193866769255937e-13	1.983779376938008099e+00	-2.057070521172975331e-08	8.905860692054606675e-13
6.400000000000086955e-07	1.976469186160163094e+00	-9.373426920682651371e-09	9.014184550479158575e-13	1.981708124937987980e+00	3.910878721534929050e-08	8.941366149969716320e-13
6.500000000000085997e-07	1.974224170336934980e+00	-2.476252776171105334e-08	9.061761559653343392e-13	1.979679435635242069e+00	-3.660504387382526082e-08	8.977046010793597606e-13
6.600000000000085040e-07	1.972013871110672945e+00	-1.054353822559071824e-07	9.109932245899451865e-13	1.977690179461190079e+00	5.493614813907299353e-08	9.012903888388689770e-13
6.700000000000084082e-07	1.969835419394204923e+00	1.206702012484092325e-08	9.158703920049415703e-13	1.975737482914077914e+00	1.052882427992570272e-08	9.048943320292792321e-13
6.800000000000083125e-07	1.967686179480800046e+00	-3.808279120009698087e-09	9.208083825634675596e-13	1.973818704308595962e+00	-8.222124070652146993e-09	9.085167754328728501e-13
6.900000000000082168e-07	1.965563727416953066e+00	-3.972508427184438704e-09	9.258079175527173348e-13	1.971931412170621067e+00	-1.144316537792496986e-08	9.121580577338952866e-13
7.000000000000081210e-07	1.963465831693870900e+00	-3.990211068667918709e-09	9.308697140258560981e-13	1.970073365950675059e+00	-1.562265899239209316e-08	9.158185107391410673e-13
7.100000000000080253e-07	1.961390435976275048e+00	-6.212749998963382381e-08	9.359944849379036739e-13	1.968242498774233074e+00	1.886590850892229428e-07	9.194984612272961844e-13
7.200000000000079295e-07	1.959335643624878998e+00	2.193193384801748667e-08	9.411829404479177313e-13	1.966436901984927044e+00	-1.666464278937272689e-08	9.231982280066005167e-13
7.300000000000078338e-07	1.957299703800883917e+00	-7.661726377644171598e-09	9.464357865187139287e-13	1.964654811270523993e+00	6.947659473522918110e-08	9.269181290847955597e-13
7.400000000000077380e-07	1.955280998970067019e+00	-1.590808208346985154e-08	9.517537265564424965e-13	1.962894594186540109e+00	7.806519105499587320e-08	9.306584747499936696e-13
7.500000000000076423e-07	1.953278033645668099e+00	-1.415304466136749606e-08	9.571374608605777540e-13	1.961154738919768104e+00	1.988558468612500656e-08	9.344195723958370455e-13
7.600000000000075466e-07	1.951289424231456904e+00	3.621813947755461646e-08	9.625876869522565069e-13	1.959433844151097892e+00	1.157437526815861783e-07	9.382017277159311858e-13
7.700000000000074508e-07	1.949313889842827940e+00	3.065293724367094395e-08	9.681050972702425866e-13	1.957730609895770968e+00	-4.586285572367052146e-08	9.420052382491964428e-13
7.800000000000073551e-07	1.947350243999429020e+00	3.419726978251434987e-08	9.736903859454692215e-13	1.956043829215651009e+00	-5.602395362489320415e-08	9.458304043350745110e-13
7.900000000000072593e-07	1.945397387094710995e+00	-1.643532387532033547e-07	9.793442407563576036e-13	1.954372380707525059e+00	-8.943363388698298569e-09	9.496775202812660365e-13
8.000000000000071636e-07	1.943454299561204079e+00	-1.967343400250518026e-07	9.850673491877519030e-13	1.952715221686929015e+00	-1.039913335065323909e-08	9.535468785541423785e-13
8.100000000000070678e-07	1.941520035657245069e+00	-2.635862135560652387e-07	9.908603952662900243e-13	1.951071381993747078e+00	-6.687908382416507882e-08	9.574387698317300008e-13
8.200000000000069721e-07	1.939593717812025053e+00	-1.974435467958291954e-08	9.967240580962807960e-13	1.949439958355539959e+00	-1.313828714237370342e-07	9.613534826620836672e-13
8.300000000000068763e-07	1.937674531472125983e+00	-3.338369444526264637e-08	1.002659018848331226e-12	1.947820109251775955e+00	-1.556818626518270640e-07	9.652913044679136533e-13
8.400000000000067806e-07	1.935761720398049945e+00	-5.032961288359301024e-08	1.008665952712216648e-12	1.946211050228602080e+00	-1.839713125999075581e-07	9.692525207004153205e-13
8.500000000000066849e-07	1.933854582367303898e+00	-7.096805317823376890e-08	1.014745533099756531e-12	1.944612049619540928e+00	-2.166982020960616533e-07	9.732374157475152468e-13
8.600000000000065891e-07	1.931952465243502060e+00	-9.567729405410443940e-08	1.020898430707140029e-12	1.943022424632155021e+00	-2.542867533828733015e-07	9.772462729387367686e-13
8.700000000000064934e-07	1.930054763376330973e+00	-1.247825420096936760e-07	1.027125313452291081e-12	1.941441537765421055e+00	-2.971317603497214210e-07	9.812793747173862290e-13
8.800000000000063976e-07	1.928160914300232953e+00	-3.563097349071177285e-06	1.033426846538164085e-12	1.939868793526217106e+00	2.643046557107789122e-07	9.853370025141841748e-13
8.900000000000063019e-07	1.926270395706854099e+00	3.708659921092159562e-07	1.039803690707242152e-12	1.938303635416223969e+00	-7.107537366590525745e-08	9.894194381070668793e-13
9.000000000000062061e-07	1.924382722656323041e+00	4.224319502536861933e-07	1.046256507610442536e-12	1.936745543165421912e+00	-7.798544739695199845e-08	9.935269618096448470e-13
9.100000000000061104e-07	1.922497445021005946e+00	-2.277304063030769701e-08	1.052785958240307715e-12	1.935194030187646019e+00	1.478703489362938348e-06	9.976598573838133251e-13
9.200000000000060147e-07	1.920614145123616945e+00	-3.051228113692421506e-08	1.059392683019644399e-12	1.933648641238046917e+00	1.686860033367581878e-06	1.001818398772940924e-12
9.300000000000059189e-07	1.918732435565918992e+00	-3.811362186407527131e-08	1.066077337313825509e-12	1.932108950257864111e+00	1.916522773107691887e-06	1.006002869261900798e-12
9.400000000000058232e-07	1.916851957221717973e+00	-4.560998880840045507e-08	1.072840566991739383e-12	1.930574558384128059e+00	2.169618261730246599e-06	1.010213549151531021e-12
9.500000000000057274e-07	1.914972377384875912e+00	-5.314132710166746632e-08	1.079683014297989771e-12	1.929045092114199056e+00	2.448413604590922308e-06	1.014450718929034716e-12
9.600000000000056317e-07	1.913093388056900990e+00	4.442524028317053061e-07	1.086605314966687798e-12	1.927520201608776018e+00	-3.811626953783636241e-06	1.018714651451608944e-12
9.700000000000055359e-07	1.911214704362901973e+00	4.977826322482075665e-07	1.093608108940781717e-12	1.925999559128338978e+00	-4.171537191602338382e-06	1.023005643215601146e-12
9.800000000000054402e-07	1.909336063083816981e+00	5.550845284683859055e-07	1.100692024102371292e-12	1.924482857575765982e+00	-4.549105223463297573e-06	1.027323968458628030e-12
9.900000000000053444e-07	1.907457221296660954e+00	6.162493118867028532e-07	1.107857686739455657e-12	1.922969809156793053e+00	-4.944522970303339381e-06	1.031669909417984951e-12
1.000000000000005249e-06	1.905577955112655930e+00	6.813692077113976157e-07	1.115105718759338128e-12	1.921460144133471992e+00	-5.358169278814439487e-06	1.036043748998926312e-12
1.010000000000005153e-06	1.903698058505657098e+00	7.505254217664820702e-07	1.122436737523049931e-12	1.919953609668848982e+00	-5.790599783074305798e-06	1.040445770859495805e-12
1.020000000000005057e-06	1.901817342223391938e+00	8.237980161675322721e-07	1.129851355676107152e-12	1.918449968754434964e+00	-6.242573199973502627e-06	1.044876259492062059e-12
1.030000000000004961e-06	1.899935632774855110e+00	9.012284201342194809e-07	1.137350180976071445e-12	1.916948999213810012e+00	-6.715031856173414346e-06	1.049335500301961391e-12
1.040000000000004866e-06	1.898052771487767965e+00	9.828224300152444581e-07	1.144933816117166740e-12	1.915450492776286984e+00	-7.209121314752755810e-06	1.053823779683348605e-12
1.050000000000004770e-06	1.896168613630571986e+00	1.068526091467454304e-06	1.152602858552574556e-12	1.913954254215108008e+00	-7.726162212622334128e-06	1.058341385092454179e-12
1.060000000000004674e-06	1.894283027593852919e+00	1.158193055057274556e-06	1.160357900314778892e-12	1.912460100545064989e+00	-8.267642616936469305e-06	1.062888605118545897e-12
1.070000000000004578e-06	1.892395894126637890e+00	1.251559550051969734e-06	1.168199527834393074e-12	1.910967860275007979e+00	-8.835194417525406166e-06	1.067465729552695110e-12
1.080000000000004483e-06	1.890507105623328910e+00	1.348211302226259426e-06	1.176128321757951417e-12	1.909477372710999932e+00	-9.430528386234542592e-06	1.072073049454451807e-12
1.090000000000004387e-06	1.888616565457380991e+00	1.447550919373380448e-06	1.184144856765031828e-12	1.907988487306234049e+00	-1.005541853227932203e-05	1.076710857216772645e-12
1.100000000000004291e-06	1.886724187358284954e+00	1.548727338264170469e-06	1.192249701385225333e-12	1.906501063054278022e+00	-1.071156978477911164e-05	1.081379446629076100e-12
1.110000000000004196e-06	1.884829894828496055e+00	1.650616399275160142e-06	1.200443417815451543e-12	1.905014967922290081e+00	-1.140055277229600916e-05	1.086079112938799974e-12
1.120000000000004100e-06	1.882933620597484037e+00	1.751733059872152618e-06	1.208726561737884206e-12	1.903530078321389984e+00	-1.212364326573493490e-05	1.090810152911484268e-12
1.130000000000004004e-06	1.881035306110059091e+00	1.850210258531428291e-06	1.217099682139221937e-12	1.902046278611339902e+00	-1.288163890096087811e-05	1.095572864889488290e-12
1.140000000000003908e-06	1.879134901046561890e+00	1.943720846716621361e-06	1.225563321131509103e-12	1.900563460637131108e+00	-1.367461817202015237e-05	1.100367548849485760e-12
1.150000000000003813e-06	1.877232362872581106e+00	2.029441139276723807e-06	1.234118013775123612e-12	1.899081523295133911e+00	-1.450168801117586884e-05	1.105194506458848398e-12
1.160000000000003717e-06	1.875327656416091004e+00	2.103992831112630005e-06	1.242764287904432046e-12	1.897600372126726054e+00	-1.536060316655363830e-05	1.110054041131005233e-12
1.170000000000003621e-06	1.873420753470079081e+00	2.163437589210237168e-06	1.251502663956378081e-12	1.896119918937444027e+00	-1.624745828881072845e-05	1.114946458079914744e-12
1.180000000000003525e-06	1.871511632418842996e+00	2.203300845406348106e-06	1.260333654802812816e-12	1.894640081439880053e+00	-1.715620869468000964e-05	1.119872064373645606e-12
1.190000000000003430e-06	1.869600277886352080e+00	2.218572615921834959e-06	1.269257765586700698e-12	1.893160782918666962e+00	-1.807827052803131059e-05	1.124831168987209018e-12
1.200000000000003334e-06	1.867686680405080013e+00	2.203810909767414021e-06	1.278275493562943389e-12	1.891681951916025950e+00	-1.900213401311586327e-05	1.129824082854713485e-12
1.210000000000003238e-06	1.865770836103977981e+00	2.153289906891332145e-06	1.287387327944179654e-12	1.890203521936490105e+00	-1.991297195473179526e-05	1.134851118920767758e-12
1.220000000000003142e-06	1.863852746414224937e+00	2.061131255682860208e-06	1.296593749751983318e-12	1.888725431169473890e+00	-2.079244968678767817e-05	1.139912592191224402e-12
1.230000000000003047e-06	1.861932417791595906e+00	1.921573363657463576e-06	1.305895231674180473e-12	1.887247622228531041e+00	-2.161864907109158779e-05	1.145008819783252699e-12
1.240000000000002951e-06	1.860009861454307023e+00	1.729177652941752971e-06	1.315292237928420812e-12	1.885770041906148053e+00	-2.236619464027450165e-05	1.150140120974612443e-12
1.250000000000002855e-06	1.858085093133718058e+00	-1.728070843609128145e-05	1.324785218502604455e-12	1.884292640946140907e+00	6.803693015397270672e-07	1.155306844531993698e-12
1.260000000000002759e-06	1.856158132847254061e+00	4.350788805886152175e-06	1.334374645315673118e-12	1.882815373814153981e+00	-5.941528962155652911e-06	1.160509268960255793e-12
1.270000000000002664e-06	1.854229004656678059e+00	-8.406439551887417636e-05	1.344060882235829587e-12	1.881338198512668036e+00	5.026588477476323785e-06	1.165747730622987461e-12
1.280000000000002568e-06	1.852297736511663961e+00	2.899130414221241610e-05	1.353844497319043201e-12	1.879861076373170015e+00	2.277866385850215002e-06	1.171022564227320390e-12
1.290000000000002472e-06	1.850364359953486026e+00	3.412888176276646318e-05	1.363725784843465921e-12	1.878383971881903980e+00	2.833431488612711161e-06	1.176334104424277330e-12
1.300000000000002376e-06	1.848428910027773986e+00	3.975134513742222876e-05	1.373705197483833369e-12	1.876906852505983103e+00	3.430202392502019056e-06	1.181682681929559370e-12
1.310000000000002281e-06	1.846491425052090074e+00	4.579748220501931108e-05	1.383783136966399015e-12	1.875429688533029049e+00	4.062827171285350868e-06	1.187068632420982934e-12
1.320000000000002185e-06	1.844551946457646974e+00	5.218119890541891707e-05	1.393959995742674507e-12	1.873952452918884015e+00	4.725078543203337530e-06	1.192492294104872006e-12
1.330000000000002089e-06	1.842610518628140071e+00	5.879413958270394270e-05	1.404236156934060479e-12	1.872475121144024923e+00	5.410497949440638596e-06	1.197954007761703518e-12
1.340000000000001993e-06	1.840667188746518024e+00	6.551052611967426303e-05	1.414611994288053430e-12	1.870997671077974100e+00	6.113192900021933337e-06	1.203454116791592184e-12
1.350000000000001898e-06	1.838722006649242013e+00	7.219353059470042411e-05	1.425087872146116950e-12	1.869520082851277909e+00	6.828719345388592165e-06	1.208992967259661237e-12
1.360000000000001802e-06	1.836775024687576030e+00	7.870227317446596446e-05	1.435664145423565843e-12	1.868042338734571928e+00	7.554892563443843248e-06	1.214570907941096508e-12
1.370000000000001706e-06	1.834826297595417044e+00	8.489850141565582131e-05	1.446341159601712149e-12	1.866564423024267061e+00	8.292487680534930109e-06	1.220188290366044603e-12
1.380000000000001610e-06	1.832875882363363074e+00	9.065240423076633097e-05	1.457119250732396666e-12	1.865086321934523950e+00	9.045733141294237542e-06	1.225845468864059726e-12
1.390000000000001515e-06	1.830923838118561964e+00	9.584647101337439809e-05	1.467998745455518476e-12	1.863608023495082922e+00	9.822509061483447571e-06	1.231542800608331586e-12
1.400000000000001419e-06	1.828970226010049105e+00	1.003776992544100355e-04	1.478979961029621235e-12	1.862129517454639061e+00	1.063430156846609825e-05	1.237280645659568379e-12
1.410000000000001323e-06	1.827015109099217938e+00	1.041579927636457174e-04	1.490063205376347273e-12	1.860650795189410012e+00	1.149599724359082918e-05	1.243059367009630162e-12
1.420000000000001227e-06	1.825058552255139022e+00	1.071129946782768515e-04	1.501248777138945872e-12	1.859171849616612970e+00	1.242550435196960887e-05	1.248879330625003497e-12
1.430000000000001132e-06	1.823100622054441899e+00	1.091800074273857005e-04	1.512536965755358596e-12	1.857692675112551983e+00	1.344328259862219682e-05	1.254740905490139774e-12
1.440000000000001036e-06	1.821141386685485086e+00	1.103053787500554158e-04	1.523928051546384504e-12	1.856213267435057990e+00	1.457189382309911929e-05	1.260644463650695998e-12
1.450000000000000940e-06	1.819180915856585035e+00	1.104415532851739379e-04	1.535422305819100751e-12	1.854733623650020036e+00	1.583568531359273612e-05	1.266590380256769722e-12
1.460000000000000844e-06	1.817219280708048057e+00	1.095442809548441133e-04	1.547019990985963263e-12	1.853253742061776954e+00	1.726029415557421107e-05	1.272579033606178599e-12
1.470000000000000749e-06	1.815256553727824906e+00	1.075700709780339718e-04	1.558721360699807626e-12	1.851773622147175002e+00	1.887251793914214833e-05	1.278610805187625850e-12
1.480000000000000653e-06	1.813292808670545098e+00	1.044738391092134560e-04	1.570526660004789755e-12	1.850293264493034107e+00	2.070011027709812382e-05	1.284686079724033939e-12
1.490000000000000557e-06	1.811328120479773096e+00	1.002070615809326254e-04	1.582436125503842108e-12	1.848812670736883046e+00	2.277165321523190770e-05	1.290805245215782938e-12
1.500000000000000462e-06	1.809362565213294971e+00	9.471612520566885030e-05	1.594449985542213466e-12	1.847331843510749971e+00	2.511659228782366996e-05	1.296968692984039567e-12
1.510000000000000366e-06	1.807396219971278084e+00	8.794103631934530800e-05	1.606568460407650892e-12	1.845850786387849052e+00	2.776526757423511714e-05	1.303176817714025842e-12
1.520000000000000270e-06	1.805429162827127954e+00	7.981425545549281043e-05	1.618791762547118416e-12	1.844369503832002044e+00	3.074900806304347141e-05	1.309430017498354176e-12
1.530000000000000174e-06	1.803461472752960093e+00	-6.372448324989770079e-05	1.631120078517323490e-12	1.842888001149683985e+00	3.664750053098561285e-05	1.315728687408624955e-12
1.540000000000000079e-06	1.801493229587610045e+00	-7.222973125356874069e-05	1.643553642998039996e-12	1.841406284444347063e+00	4.122027746083194036e-05	1.322073245649156699e-12
1.549999999999999983e-06	1.799524513926159974e+00	-8.169516595863939175e-05	1.656092627510662962e-12	1.839924360573309992e+00	4.625218311382762570e-05	1.328464094103677991e-12
1.559999999999999887e-06	1.797555407092964019e+00	-9.221793877181762170e-05	1.668737215634355789e-12	1.838442237106659993e+00	5.177876783154565054e-05	1.334901644925895641e-12
1.569999999999999791e-06	1.795585991075842935e+00	-1.039055613301444506e-04	1.681487584439977356e-12	1.836959922288269098e+00	5.783807818439320867e-05	1.341386313893624136e-12
1.579999999999999696e-06	1.793616348470453925e+00	-1.168749812494315548e-04	1.694343904805855601e-12	1.835477424998767981e+00	6.447118593088107001e-05	1.347918520452100340e-12
1.589999999999999600e-06	1.791646562426534972e+00	-1.312535864843652892e-04	1.707306341749674959e-12	1.833994754720366993e+00	7.172233575758224814e-05	1.354498687757161873e-12
1.599999999999999504e-06	1.789676716595919981e+00	-1.471775200555890779e-04	1.720375054776521889e-12	1.832511921503440000e+00	7.963983184022868503e-05	1.361127242718563636e-12
1.609999999999999408e-06	1.787706895082251002e+00	-1.647912768923694268e-04	1.733550198242587675e-12	1.831028935934776003e+00	8.827573313163208056e-05	1.367804616043159214e-12
1.619999999999999313e-06	1.785737182392278077e+00	-1.842449444523140375e-04	1.746831921734522819e-12	1.829545809107393062e+00	9.768664853227889094e-05	1.374531242278121272e-12
1.629999999999999217e-06	1.783767663388690972e+00	-2.056910510433737713e-04	1.760220370463980184e-12	1.828062552591849022e+00	1.079339466985106388e-04	1.381307559854122966e-12
1.639999999999999121e-06	1.781798423244425056e+00	-2.292805723704764275e-04	1.773715685677221666e-12	1.826579178408977988e+00	1.190837966252281837e-04	1.388134011128538540e-12
1.649999999999999025e-06	1.779829547398322998e+00	-2.551565963156728198e-04	1.787318005079019983e-12	1.825095699003951966e+00	1.312073247431138755e-04	1.395011042428520131e-12
1.659999999999998930e-06	1.777861121512158915e+00	-2.834476751569532790e-04	1.801027463271018159e-12	1.823612127221633017e+00	1.443806554617047119e-04	1.401939104094134549e-12
