# wavelength [m]	effective refractive index	transmission [dB/m]	effective mode area [m]	effective refractive index	transmission [dB/m]	effective mode area [m]	
5.500000000000095572e-07	1.992986154288711065e+00	4.967250780213141330e-12	5.370978332444908486e-13	1.995838443244521976e+00	2.191916331475068571e-12	5.348464105053425446e-13
5.600000000000094614e-07	1.990048682932896051e+00	-1.583907863814062878e-12	5.401549384859386030e-13	1.993041078226585938e+00	1.371273657438557730e-12	5.374361010095294589e-13
5.700000000000093657e-07	1.987185035686855006e+00	-2.767137665275538836e-12	5.432491467173354017e-13	1.990321184025140022e+00	6.933514484517581090e-13	5.400439103627070910e-13
5.800000000000092699e-07	1.984388700856623000e+00	-4.380457516820516078e-12	5.463811261728952399e-13	1.987672251013629987e+00	-2.825479477001223231e-13	5.426702958554762859e-13
5.900000000000091742e-07	1.981653776214308937e+00	-6.430135546982078952e-12	5.495515391191076951e-13	1.985088377468366971e+00	-1.736753767262817511e-12	5.453157049011892039e-13
6.000000000000090785e-07	1.978974902685070036e+00	-8.949441053357001931e-12	5.527610427354765659e-13	1.982564203275918979e+00	-3.629246420374812401e-12	5.479805762172560302e-13
6.100000000000089827e-07	1.976347206379934107e+00	-1.212256058205829009e-11	5.560102899088365140e-13	1.980094851985964022e+00	-6.017403391296679569e-12	5.506653408882509887e-13
6.200000000000088870e-07	1.973766247785103900e+00	9.763815598841054708e-12	5.592999299507357498e-13	1.977675880020236088e+00	3.895882964873532012e-12	5.533704233250905632e-13
6.300000000000087912e-07	1.971227977107363083e+00	-1.314764067900741894e-11	5.626306092460468088e-13	1.975303232037199042e+00	-5.250763055385822928e-12	5.560962421325766260e-13
6.400000000000086955e-07	1.968728694930856005e+00	-1.447069796312273428e-11	5.660029718401097909e-13	1.972973201607697069e+00	-6.599857181095712135e-12	5.588432108961312308e-13
6.500000000000085997e-07	1.966265017469774001e+00	-1.533425320942416550e-11	5.694176599707593404e-13	1.970682396486125088e+00	-7.615294003377985340e-12	5.616117388968139777e-13
6.600000000000085040e-07	1.963833845808862000e+00	-1.584920407656547070e-11	5.728753145505821508e-13	1.968427707869055077e+00	-8.693412110986583626e-12	5.644022317630164404e-13
6.700000000000084082e-07	1.961432338613291027e+00	-1.540898858808231067e-11	5.763765756045244889e-13	1.966206283122845067e+00	-9.742118230865509328e-12	5.672150920657673518e-13
6.800000000000083125e-07	1.959057887864664949e+00	-1.407918101170081264e-11	5.799220826670193649e-13	1.964015501537033082e+00	-1.046777464944854699e-11	5.700507198639106654e-13
6.900000000000082168e-07	1.956708097242978006e+00	-1.182795854102545102e-11	5.835124751424700663e-13	1.961852952723331933e+00	-1.119343106803170421e-11	5.729095132046256569e-13
7.000000000000081210e-07	1.954380762827681028e+00	-8.141816800117035461e-12	5.871483926324643098e-13	1.959716417333402960e+00	-1.143306644347082012e-11	5.757918685840959445e-13
7.100000000000080253e-07	1.952073855835932070e+00	-2.832229769267927758e-12	5.908304752327052220e-13	1.957603849813480013e+00	-1.116594773523486525e-11	5.786981813725287618e-13
7.200000000000079295e-07	1.949785507154448094e+00	4.581519793592250571e-12	5.945593638022894260e-13	1.955513362952314926e+00	-1.038291383239165366e-11	5.816288462073002107e-13
7.300000000000078338e-07	1.947513993453763081e+00	1.376866756742600670e-11	5.983357002077157296e-13	1.953443214011201912e+00	-8.483188723277552274e-12	5.845842573574846293e-13
7.400000000000077380e-07	1.945257724701461077e+00	2.611013048431831502e-11	6.021601275437336648e-13	1.951391792252733071e+00	-5.197725044725328411e-12	5.875648090627246998e-13
7.500000000000076423e-07	1.943015232914730994e+00	-1.146488925000336075e-10	6.060332903328310379e-13	1.949357607708593010e+00	-1.497287149156435501e-10	5.905708958492009122e-13
7.600000000000075466e-07	1.940785162012794052e+00	-7.937861541005924998e-11	6.099558347054299544e-13	1.947339281046984061e+00	-1.393790703805159101e-10	5.936029128240325358e-13
7.700000000000074508e-07	1.938566258647411056e+00	-2.695391701771457103e-11	6.139284085613679848e-13	1.945335534417903078e+00	-1.258109829256969070e-10	5.966612559525394321e-13
7.800000000000073551e-07	1.936357363904559037e+00	2.879481815118569477e-11	6.179516617152925247e-13	1.943345183169371104e+00	-7.730868650306527633e-11	5.997463223169595532e-13
7.900000000000072593e-07	1.934157405783561989e+00	4.537739326589441303e-11	6.220262460261293026e-13	1.941367128340907078e+00	-8.988592748582862930e-11	6.028585103613705377e-13
8.000000000000071636e-07	1.931965392371080892e+00	6.618372268398090243e-11	6.261528155123952150e-13	1.939400349851688077e+00	-1.060292514400280667e-10	6.059982201212960455e-13
8.100000000000070678e-07	1.929780405637252949e+00	5.232831161751303205e-08	6.303320264577947163e-13	1.937443900310664935e+00	-3.199648177416338340e-10	6.091658534422459263e-13
8.200000000000069721e-07	1.927601595789673938e+00	9.856036051295232612e-08	6.345645374878537819e-13	1.935496899384401059e+00	-3.393772118085583934e-10	6.123618141864124181e-13
8.300000000000068763e-07	1.925428176128419988e+00	2.934971789567648031e-07	6.388510096713016350e-13	1.933558528665757947e+00	-3.541386545040014474e-10	6.155865084290034648e-13
8.400000000000067806e-07	1.923259418351648042e+00	1.958777629737570459e-09	6.431921065227965454e-13	1.931628026993104985e+00	2.031143656204360367e-10	6.188403446456073042e-13
8.500000000000066849e-07	1.921094648267215099e+00	2.055881548264737839e-09	6.475884941950103550e-13	1.929704686175303996e+00	2.751004466672090755e-10	6.221237338909354743e-13
8.600000000000065891e-07	1.918933241870214967e+00	2.046214165417107016e-09	6.520408413730391553e-13	1.927787847082681916e+00	3.589728280645585062e-10	6.254370899701165505e-13
8.700000000000064934e-07	1.916774621751359042e+00	4.104486282246131128e-10	6.565498193954725598e-13	1.925876896068628996e+00	7.236313308955579648e-11	6.287808296029750024e-13
8.800000000000063976e-07	1.914618253804339920e+00	4.910914769342280263e-10	6.611161022675009625e-13	1.923971261690160084e+00	7.099089510467311320e-11	6.321553725818205408e-13
8.900000000000063019e-07	1.912463644204071000e+00	-1.079023611231712687e-09	6.657403666793877576e-13	1.922070411699277948e+00	2.998769122730403943e-11	6.355611419240438564e-13
9.000000000000062061e-07	1.910310336630457906e+00	-1.224687685911886764e-09	6.704232920223216818e-13	1.920173850279838001e+00	7.071027581191069469e-11	6.389985640188868543e-13
9.100000000000061104e-07	1.908157909715139988e+00	-1.386158534269971013e-09	6.751655603943876209e-13	1.918281115507326051e+00	1.318929962534234216e-10	6.424680687699848974e-13
9.200000000000060147e-07	1.906005974690808902e+00	-1.573006624252992513e-09	6.799678566006885865e-13	1.916391777011209996e+00	2.190961647228468295e-10	6.459700897333282539e-13
9.300000000000059189e-07	1.903854173224942992e+00	-1.789006333569869570e-09	6.848308681470016082e-13	1.914505433821692915e+00	3.488387107193758169e-10	6.495050642514365078e-13
9.400000000000058232e-07	1.901702175421452923e+00	-2.043281164390294806e-09	6.897552852275449119e-13	1.912621712384374950e+00	5.310696007104230186e-10	6.530734335839880683e-13
9.500000000000057274e-07	1.899549677975530981e+00	-2.347982124969848695e-09	6.947418007071462804e-13	1.910740264728139071e+00	7.856674810813599594e-10	6.566756430352074988e-13
9.600000000000056317e-07	1.897396402468296106e+00	-2.717334974114616579e-09	6.997911100981878175e-13	1.908860766772864093e+00	1.141979729601457822e-09	6.603121420783685181e-13
9.700000000000055359e-07	1.895242093789248905e+00	-3.173895331300200589e-09	7.049039115326454862e-13	1.906982916764971003e+00	1.627499322306899903e-09	6.639833844776508713e-13
9.800000000000054402e-07	1.893086518675590080e+00	-3.736404900882650881e-09	7.100809057295151360e-13	1.905106433829897972e+00	2.285613280506900065e-09	6.676898284075783643e-13
9.900000000000053444e-07	1.890929464358602097e+00	-4.439438197760410115e-09	7.153227959579787320e-13	1.903231056631691898e+00	3.169820563273721266e-09	6.714319365703487593e-13
1.000000000000005249e-06	1.888770737308107073e+00	-5.319130983036246092e-09	7.206302879965839204e-13	1.901356542130745009e+00	4.341449504298782351e-09	6.752101763111810412e-13
1.010000000000005153e-06	1.886610162066941987e+00	-6.426147093329959326e-09	7.260040900887515669e-13	1.899482664431636936e+00	5.885257737253201881e-09	6.790250197319214854e-13
1.020000000000005057e-06	1.884447580168060021e+00	-7.826044885255448822e-09	7.314449128949157041e-13	1.897609213713689957e+00	7.901032903471150588e-09	6.828769438030829093e-13
1.030000000000004961e-06	1.882282849127570046e+00	-9.603873702359579626e-09	7.369534694415842715e-13	1.895735995237570082e+00	1.051489939134240962e-08	6.867664304744749291e-13
1.040000000000004866e-06	1.880115841507641994e+00	-1.188799083505524999e-08	7.425304750676626462e-13	1.893862828421859046e+00	1.386956994976380240e-08	6.906939667845894076e-13
1.050000000000004770e-06	1.877946444043725904e+00	-1.485717488242845185e-08	7.481766473682075830e-13	1.891989545984072985e+00	1.815396597020549437e-08	6.946600449688536776e-13
1.060000000000004674e-06	1.875774556830958950e+00	-4.924934272817122812e-07	7.538927061262731662e-13	1.890115993141022077e+00	2.466744637935064218e-08	6.986651625667930423e-13
1.070000000000004578e-06	1.873600092565373965e+00	-4.417403730403076114e-07	7.596793732930293941e-13	1.888242026863959921e+00	3.183840909796258797e-08	7.027098225289915295e-13
1.080000000000004483e-06	1.871422975835197011e+00	-4.164819360073281745e-07	7.655373728637235588e-13	1.886367515184294907e+00	4.078921845714263492e-08	7.067945333219838863e-13
1.090000000000004387e-06	1.869243142458997031e+00	-4.074519187516076265e-07	7.714674308577527861e-13	1.884492336545982027e+00	5.191730464859867625e-08	7.109198090338319766e-13
1.100000000000004291e-06	1.867060538866718966e+00	-4.105564719968234200e-07	7.774702752433526339e-13	1.882616379201129009e+00	6.568867793245478372e-08	7.150861694784856517e-13
1.110000000000004196e-06	1.864875121520463974e+00	-4.240588529215738234e-07	7.835466358731293089e-13	1.880739540645504082e+00	8.266747851974473208e-08	7.192941402998583686e-13
1.120000000000004100e-06	1.862686856372147037e+00	-4.474948198676696905e-07	7.896972444193007746e-13	1.878861727091098999e+00	1.035307163119673477e-07	7.235442530755022434e-13
1.130000000000004004e-06	1.860495718355182015e+00	-4.812392138739870086e-07	7.959228343090172260e-13	1.876982852972902016e+00	1.290764715337963237e-07	7.278370454200172403e-13
1.140000000000003908e-06	1.858301690907766091e+00	-5.262495927023126496e-07	8.022241406601085824e-13	1.875102840487490985e+00	1.602645575169713066e-07	7.321730610882551805e-13
1.150000000000003813e-06	1.856104765525441902e+00	-5.840501246848964071e-07	8.086019002176117049e-13	1.873221619161089979e+00	1.982308833765844385e-07	7.365528500783707749e-13
1.160000000000003717e-06	1.853904941340813961e+00	-6.566099769596618267e-07	8.150568512914311488e-13	1.871339125445010909e+00	2.443129266968801264e-07	7.409769687348170213e-13
1.170000000000003621e-06	1.851702224728480006e+00	-7.464286884528976639e-07	8.215897336955593622e-13	1.869455302336521907e+00	3.000893789272654989e-07	7.454459798513099037e-13
1.180000000000003525e-06	1.849496628933374964e+00	-8.564818277429529405e-07	8.282012886891595551e-13	1.867570099023363017e+00	3.673981609009102415e-07	7.499604527738726607e-13
1.190000000000003430e-06	1.847288173720877946e+00	-9.902618069623721676e-07	8.348922589199524975e-13	1.865683470550250966e+00	4.483949449075570989e-07	7.545209635039337717e-13
1.200000000000003334e-06	1.845076885047135073e+00	-1.151796520568434711e-06	8.416633883703030635e-13	1.863795377505846007e+00	5.455414090984509331e-07	7.591280948016628377e-13
1.210000000000003238e-06	1.842862794748215904e+00	-1.345612673246259158e-06	8.485154223063593273e-13	1.861905785728803053e+00	6.616670613611621443e-07	7.637824362894199582e-13
1.220000000000003142e-06	1.840645940246794954e+00	-1.186043044531736396e-06	8.554491072302354247e-13	1.860014666031557962e+00	7.714127732116840130e-07	7.684845845556309153e-13
1.230000000000003047e-06	1.838426364275020042e+00	-1.436460804917279975e-06	8.624651908404053338e-13	1.858121993940704098e+00	8.167805746960622449e-07	7.732351432587235489e-13
1.240000000000002951e-06	1.836204114612834060e+00	-1.614568841944845469e-06	8.695644219828162180e-13	1.856227749452828091e+00	1.145360883047233053e-06	7.780347232306338803e-13
1.250000000000002855e-06	1.833979243840146989e+00	-1.982084629509719104e-06	8.767475506281150084e-13	1.854331916804677904e+00	1.378329470041915814e-06	7.828839425843325238e-13
1.260000000000002759e-06	1.831751809102424078e+00	-2.426880729514629989e-06	8.840153278366992157e-13	1.852434484256948011e+00	1.656159711136677222e-06	7.877834268158142788e-13
1.270000000000002664e-06	1.829521871888470042e+00	-2.963554106479749776e-06	8.913685057359903647e-13	1.850535443890519050e+00	1.986931495223433727e-06	7.927338089115290201e-13
1.280000000000002568e-06	1.827289497819736042e+00	-3.608991480872196702e-06	8.988078375035069831e-13	1.848634791414518919e+00	2.380016362159553411e-06	7.977357294541714538e-13
1.290000000000002472e-06	1.825054756450352977e+00	-4.382556584387355188e-06	9.063340773562602913e-13	1.846732525985371076e+00	2.846170063858380957e-06	8.027898367294229593e-13
1.300000000000002376e-06	1.822817721077161002e+00	-5.306341193926168007e-06	9.139479805471814326e-13	1.844828650036137940e+00	3.397710845727442004e-06	8.078967868331766939e-13
1.310000000000002281e-06	1.820578468559088003e+00	-6.405379851893695545e-06	9.216503033690807726e-13	1.842923169115493920e+00	4.048603727631172685e-06	8.130572437794824409e-13
1.320000000000002185e-06	1.818337079145265989e+00	-7.707797743726844998e-06	9.294418031666666553e-13	1.841016091735719895e+00	4.814628184637171420e-06	8.182718796090402534e-13
1.330000000000002089e-06	1.816093636311322035e+00	-9.245033779494572616e-06	9.373232383569649100e-13	1.839107429229162038e+00	5.713490679558676017e-06	8.235413744983685039e-13
1.340000000000001993e-06	1.813848226603282043e+00	-1.105194409130509531e-05	9.452953684587701973e-13	1.837197195612598977e+00	6.764933241193131140e-06	8.288664168697247978e-13
1.350000000000001898e-06	1.811600939488630990e+00	-1.316702298782822199e-05	9.533589541315037065e-13	1.835285407459039897e+00	7.990845715728977442e-06	8.342477035016871573e-13
1.360000000000001802e-06	1.809351867214042953e+00	-1.563243812929970500e-05	9.615147572239616803e-13	1.833372083776509953e+00	9.415311552625763231e-06	8.396859396405219960e-13
1.370000000000001706e-06	1.807101104669353919e+00	-1.849419550113481163e-05	9.697635408335394055e-13	1.831457245893334917e+00	1.106471017639367273e-05	8.451818391123598874e-13
1.380000000000001610e-06	1.804848749257397023e+00	-2.180227817268746935e-05	9.781060693762245063e-13	1.829540917349607110e+00	1.296779234536394151e-05	8.507361244361047086e-13
1.390000000000001515e-06	1.802594900769288966e+00	-2.561077420602340807e-05	9.865431086679972926e-13	1.827623123794372972e+00	1.515563547534431576e-05	8.563495269372773002e-13
1.400000000000001419e-06	1.800339661264872992e+00	-2.997813051119966980e-05	9.950754260179897545e-13	1.825703892888268065e+00	1.766178676707442878e-05	8.620227868626335989e-13
1.410000000000001323e-06	1.798083134957936036e+00	-3.496740791248591305e-05	1.003703790333986634e-12	1.823783254211218008e+00	2.052222981104437821e-05	8.677566534957448514e-13
1.420000000000001227e-06	1.795825428105936039e+00	-4.064668085889688062e-05	1.012428972240501013e-12	1.821861239174918046e+00	2.377543981973274614e-05	8.735518852734436824e-13
1.430000000000001132e-06	1.793566648903943905e+00	-4.708965787717795521e-05	1.021251744210177692e-12	1.819937880939819008e+00	2.746250675896690782e-05	8.794092499032187144e-13
1.440000000000001036e-06	1.791306907382534064e+00	-5.437632692722449142e-05	1.030172880708670358e-12	1.818013214336327898e+00	3.162712843004622764e-05	8.853295244816068122e-13
1.450000000000000940e-06	1.789046315309382962e+00	-6.259389234544288744e-05	1.039193158353564264e-12	1.816087275789999067e+00	3.631589488016150286e-05	8.913134956135009618e-13
1.460000000000000844e-06	1.786784986094331007e+00	-7.183799566279766232e-05	1.048313356087723685e-12	1.814160103250433087e+00	4.157842424661762081e-05	8.973619595325594742e-13
1.470000000000000749e-06	1.784523034697713895e+00	-8.221400590009453639e-05	1.057534255367498525e-12	1.812231736123737003e+00	4.746766961581559360e-05	9.034757222225710118e-13
1.480000000000000653e-06	1.782260577541737945e+00	-9.397317045367976549e-05	1.066856640363992548e-12	1.810302215208265952e+00	5.404443254320189161e-05	9.096555995402669781e-13
1.490000000000000557e-06	1.779997732424752899e+00	-1.069420204483642546e-04	1.076281298190089518e-12	1.808371582633488961e+00	6.136275914296006860e-05	9.159024173375003960e-13
1.500000000000000462e-06	1.777734618438167047e+00	-1.214143309279906176e-04	1.085809019123246908e-12	1.806439881801807923e+00	6.948863397530595086e-05	9.222170115878307945e-13
1.510000000000000366e-06	1.775471355885944069e+00	-1.375447684162564837e-04	1.095440596864433522e-12	1.804507157333123057e+00	7.849220387995924086e-05	9.286002285110050968e-13
1.520000000000000270e-06	1.773208066206449107e+00	-1.555049721812355734e-04	1.105176828803660726e-12	1.802573455012010939e+00	8.844962283792895700e-05	9.350529247001775336e-13
1.530000000000000174e-06	1.770944871896535044e+00	-1.754844511453109443e-04	1.115018516304336497e-12	1.800638821737357009e+00	9.944408839281152184e-05	9.415759672499370477e-13
1.540000000000000079e-06	1.768681896437725998e+00	-1.976911024922005193e-04	1.124966465004573627e-12	1.798703305474294911e+00	1.115666016146552378e-04	9.481702338855631504e-13
1.549999999999999983e-06	1.766419264224383889e+00	-2.223487991519503232e-04	1.135021485135584791e-12	1.796766955208326966e+00	1.249154873159780902e-04	9.548366130934338936e-13
1.559999999999999887e-06	1.764157100493729979e+00	-2.497051495141717906e-04	1.145184391858502780e-12	1.794829820901499007e+00	1.396049660135806922e-04	9.615760042527374184e-13
1.569999999999999791e-06	1.761895531257626102e+00	-2.800085290885802867e-04	1.155456005616443994e-12	1.792891953450507003e+00	1.557504365447956376e-04	9.683893177682613029e-13
1.579999999999999696e-06	1.759634683235997032e+00	-3.135216277987876556e-04	1.165837152507351831e-12	1.790953404646624891e+00	1.734845280820790229e-04	9.752774752046082710e-13
1.589999999999999600e-06	1.757374683791820935e+00	-3.505031588570355463e-04	1.176328664672432089e-12	1.789014227137347035e+00	1.929495223601270621e-04	9.822414094215819903e-13
1.599999999999999504e-06	1.755115660867583083e+00	-3.911979954695105088e-04	1.186931380703298705e-12	1.787074474389648948e+00	2.142984284391096297e-04	9.892820647108875541e-13
1.609999999999999408e-06	1.752857742923134010e+00	-4.358215761158609368e-04	1.197646146066926682e-12	1.785134200654787895e+00	2.376940981372068753e-04	9.964003969340967659e-13
1.619999999999999313e-06	1.750601058874849958e+00	-4.845404154023429414e-04	1.208473813548492401e-12	1.783193460934515029e+00	2.633069247369020051e-04	1.003597373661946486e-12
1.629999999999999217e-06	1.748345738036040098e+00	-5.374485205584796175e-04	1.219415243712047585e-12	1.781252310948655104e+00	2.913118963774751109e-04	1.010873974314996695e-12
1.639999999999999121e-06	1.746091910058551022e+00	-5.945405108065172656e-04	1.230471305378911418e-12	1.779310807103966940e+00	3.218835482301555758e-04	1.018231190305527918e-12
1.649999999999999025e-06	1.743839704875469021e+00	-6.556827130789508011e-04	1.241642876123760195e-12	1.777369006464186052e+00	3.551898384507931193e-04	1.025670025180840165e-12
1.659999999999998930e-06	1.741589252644919039e+00	-7.205846725021869924e-04	1.252930842788044560e-12	1.775426966721217026e+00	3.913837175459509640e-04	1.033191494767924319e-12
