# wavelength [m]	effective refractive index	transmission [dB/m]	effective mode area [m]	effective refractive index	transmission [dB/m]	effective mode area [m]	
5.500000000000095572e-07	1.972181976257836977e+00	0.000000000000000000e+00	3.113341633598632606e-13	1.973265116221879945e+00	-4.821637332766435678e-16	3.100426953251961425e-13
5.600000000000094614e-07	1.968592650767901020e+00	9.643274665532869384e-16	3.137463293781999859e-13	1.969727053399946914e+00	-9.643274665532871356e-16	3.123445264028419216e-13
5.700000000000093657e-07	1.965071352808654082e+00	-1.446491199829930999e-15	3.161931709828323971e-13	1.966258173977825097e+00	0.000000000000000000e+00	3.146768609237647664e-13
5.800000000000092699e-07	1.961611724817702074e+00	-4.821637332766435678e-16	3.186754341186160164e-13	1.962852110496946079e+00	9.643274665532869384e-16	3.170403882051274491e-13
5.900000000000091742e-07	1.958208017980306082e+00	-1.446491199829930999e-15	3.211938665984190944e-13	1.959503103546339942e+00	9.643274665532869384e-16	3.194357986156429657e-13
6.000000000000090785e-07	1.954855025964675974e+00	0.000000000000000000e+00	3.237492189096683373e-13	1.956205935503585014e+00	-1.157192959863945904e-14	3.218637844249364526e-13
6.100000000000089827e-07	1.951548027004099017e+00	-1.398274826502268506e-14	3.263422449524217610e-13	1.952955872622641031e+00	2.892982399659851664e-14	3.243250405847615377e-13
6.200000000000088870e-07	1.948282733136182943e+00	6.750292265873004625e-15	3.289737027167107661e-13	1.949748614278848935e+00	2.410818666383210877e-14	3.268202654500193590e-13
6.300000000000087912e-07	1.945055245598507954e+00	-5.785964799319727153e-15	3.316443549059210980e-13	1.946580248370392896e+00	1.446491199829928357e-14	3.293501614464389239e-13
6.400000000000086955e-07	1.941862015535706032e+00	-1.928654933106574666e-15	3.343549695120822200e-13	1.943447212031246929e+00	-9.161110932256236170e-15	3.319154356909329328e-13
6.500000000000085997e-07	1.938699809302272037e+00	-1.108976586536281478e-14	3.371063203482090809e-13	1.940346256939903036e+00	-3.712660746230171673e-14	3.345168005698743730e-13
6.600000000000085040e-07	1.935565677752812963e+00	-1.301842079846939655e-14	3.398991875422076492e-13	1.937274418615622995e+00	7.714619732426289196e-15	3.371549742799191086e-13
6.700000000000084082e-07	1.932456929001141965e+00	-1.060760213208617052e-14	3.427343579962972057e-13	1.934228989183597980e+00	-6.075263039285751415e-14	3.398306813353896026e-13
6.800000000000083125e-07	1.929371104204830933e+00	4.918070079421736407e-14	3.456126258154261855e-13	1.931207493165638001e+00	1.494707573157569401e-13	3.425446530458171288e-13
6.900000000000082168e-07	1.926305955994920938e+00	9.161110932256130778e-14	3.485347927077713314e-13	1.928207665916124913e+00	-2.266169546400230380e-14	3.452976279667528332e-13
7.000000000000081210e-07	1.923259429223836081e+00	-5.689532052664430960e-14	3.515016683600029414e-13	1.925227434376252988e+00	-1.224695882522691909e-13	3.480903523266621475e-13
7.100000000000080253e-07	1.920229643749497894e+00	-5.110935572732452170e-14	3.545140707897701352e-13	1.922264899864583931e+00	-6.750292265873061896e-14	3.509235804323441122e-13
7.200000000000079295e-07	1.917214879011982065e+00	9.353976425566784064e-14	3.575728266775015574e-13	1.919318322660247933e+00	-1.162014597196726499e-13	3.537980750550671021e-13
7.300000000000078338e-07	1.914213560191416974e+00	1.735789439795882095e-13	3.606787716794664301e-13	1.916386108167523972e+00	-1.615248506476786080e-13	3.567146077993901021e-13
7.400000000000077380e-07	1.911224245763684992e+00	3.346216308939777329e-13	3.638327507237668274e-13	1.913466794478348998e+00	-1.996157855765350237e-13	3.596739594563888216e-13
7.500000000000076423e-07	1.908245616294170111e+00	5.631672404670831582e-13	3.670356182908236958e-13	1.910559041173025996e+00	-3.206388826289797991e-13	3.626769203428345820e-13
7.600000000000075466e-07	1.905276464330083019e+00	9.431122622890124998e-13	3.702882386797037172e-13	1.907661619219660931e+00	-6.885298111191016241e-13	3.657242906277592548e-13
7.700000000000074508e-07	1.902315685269512890e+00	1.371273657438557730e-12	3.735914862615413164e-13	1.904773401850496040e+00	-8.992353625610333095e-13	3.688168806475990593e-13
7.800000000000073551e-07	1.899362269100258960e+00	2.323064866926247475e-12	3.769462457211881886e-13	1.901893356308202110e+00	-1.764237100059597096e-12	3.719555112111066443e-13
7.900000000000072593e-07	1.896415292914684914e+00	3.663480045434392851e-12	3.803534122880952909e-13	1.899020536368386081e+00	-2.765691174075707630e-12	3.751410138950014136e-13
8.000000000000071636e-07	1.893473914117973944e+00	5.980758947559368316e-12	3.838138919573838289e-13	1.896154075555700036e+00	-4.604663652794386935e-12	3.783742313313059384e-13
8.100000000000070678e-07	1.890537364257022901e+00	9.662561214853188559e-12	3.873286017019730082e-13	1.893293180980806012e+00	-7.384819738871351032e-12	3.816560174872059379e-13
8.200000000000069721e-07	1.887604943405680080e+00	2.702334859513869019e-11	3.908984696765316028e-13	1.890437127733904044e+00	-2.037816802325187319e-11	3.849872379381889119e-13
8.300000000000068763e-07	1.884676015049425057e+00	4.305625705392428746e-11	3.945244354140445232e-13	1.887585253777952943e+00	-3.214296311527311409e-11	3.883687701351803628e-13
8.400000000000067806e-07	1.881750001419101093e+00	6.762249926405623639e-11	3.982074500156622779e-13	1.884736955291185012e+00	-5.044830924929494718e-11	3.918015036662932967e-13
8.500000000000066849e-07	1.878826379228945020e+00	1.051926973602248139e-10	4.019484763344972848e-13	1.881891682414180922e+00	-7.861824320266815131e-11	3.952863405138181034e-13
8.600000000000065891e-07	1.875904675779038966e+00	1.620484804589907606e-10	4.057484891540114486e-13	1.879048935361647077e+00	-1.209170210327999734e-10	3.988241953069827290e-13
8.700000000000064934e-07	1.872984465386823061e+00	2.470606969239247737e-10	4.096084753615878751e-13	1.876208260863541977e+00	-1.846754601411468350e-10	4.024159955710157280e-13
8.800000000000063976e-07	1.870065366115956085e+00	3.730172932862569948e-10	4.135294341178813095e-13	1.873369248903838047e+00	-2.790334562572235953e-10	4.060626819729810195e-13
8.900000000000063019e-07	1.867147036774305935e+00	5.575288177343959910e-10	4.175123770225018977e-13	1.870531529728735931e+00	-4.177948749043077811e-10	4.097652085648582186e-13
9.000000000000062061e-07	1.864229174155755064e+00	8.249618966811869788e-10	4.215583282766255962e-13	1.867694771099017048e+00	-6.195167516918811502e-10	4.135245430242879395e-13
9.100000000000061104e-07	1.861311510503186106e+00	1.208398748169809230e-09	4.256683248430441803e-13	1.864858675763898077e+00	-9.091553993045355682e-10	4.173416668934136340e-13
9.200000000000060147e-07	1.858393811172263987e+00	1.752045107546197557e-09	4.298434166042818978e-13	1.862022979136042977e+00	-1.321226508616832793e-09	4.212175758162253769e-13
9.300000000000059189e-07	1.855475872477811983e+00	2.515783781733937714e-09	4.340846665192363356e-13	1.859187447149514893e+00	-1.901407378791610167e-09	4.251532797747684491e-13
9.400000000000058232e-07	1.852557519706262035e+00	3.577338600030316110e-09	4.383931507790277491e-13	1.856351874284176029e+00	-2.709903384488980229e-09	4.291498033246474235e-13
9.500000000000057274e-07	1.849638605279432024e+00	5.038541578240558156e-09	4.427699589625328977e-13	1.853516081741789945e+00	-3.826519856219320483e-09	4.332081858301516483e-13
9.600000000000056317e-07	1.846719007056232043e+00	7.032372509058211858e-09	4.472161941922635556e-13	1.850679915760440108e+00	-5.353755642929121351e-09	4.373294816994209178e-13
9.700000000000055359e-07	1.843798626760235093e+00	9.729298450616174095e-09	4.517329732911382915e-13	1.847843246055216104e+00	-7.425808484179450269e-09	4.415147606200008034e-13
9.800000000000054402e-07	1.840877388522202063e+00	1.334872704343583129e-08	4.563214269408215180e-13	1.845005964374256013e+00	-1.021438026171650147e-08	4.457651077951739196e-13
9.900000000000053444e-07	1.837955237527693964e+00	1.817038268092744298e-08	4.609826998422477758e-13	1.842167983160297950e+00	-1.393643838945727602e-08	4.500816241814522932e-13
1.000000000000005249e-06	1.835032138760785969e+00	2.455319286176085163e-08	4.657179508789784431e-13	1.839329234308749061e+00	-1.887701974792273415e-08	4.544654267276036312e-13
1.010000000000005153e-06	1.832108075835789940e+00	3.294715520196454104e-08	4.705283532841257138e-13	1.836489668014209098e+00	-2.538987003437210992e-08	4.589176486156270977e-13
1.020000000000005057e-06	1.829183049909572034e+00	4.393211111074164825e-08	4.754150948115391997e-13	1.833649251698014071e+00	-3.392942182772637720e-08	4.634394395040860298e-13
1.030000000000004961e-06	1.826257078667770983e+00	5.823551448371667691e-08	4.803793779120006523e-13	1.830807969010139091e+00	-4.506630049491814594e-08	4.680319657741922014e-13
1.040000000000004866e-06	1.823330195378801921e+00	7.677608197799794042e-08	4.854224199152274259e-13	1.827965818899331074e+00	-5.952728785456464157e-08	4.726964107791313577e-13
1.050000000000004770e-06	1.820402448010097096e+00	1.007211540901970265e-07	4.905454532184281574e-13	1.825122814745939070e+00	-7.823277811002190214e-08	4.774339750969791405e-13
1.060000000000004674e-06	1.817473898401450016e+00	1.315208766881741452e-07	4.957497254823702185e-13	1.822278983552306997e+00	-1.023259579284950460e-07	4.822458767877997677e-13
1.070000000000004578e-06	1.814544621490886911e+00	1.709932093381154008e-07	5.010364998357364431e-13	1.819434365186161084e+00	-1.332471512871210284e-07	4.871333516553202584e-13
1.080000000000004483e-06	1.811614704588804026e+00	2.213814724611827918e-07	5.064070550887231142e-13	1.816589011672725906e+00	-1.727836313570624562e-07	4.920976535137324299e-13
1.090000000000004387e-06	1.808684246696466102e+00	2.854328406201306755e-07	5.118626859568482589e-13	1.813742986531682089e+00	-2.231317299906790269e-07	4.971400544601282458e-13
1.100000000000004291e-06	1.805753357865401920e+00	3.664743034432026481e-07	5.174047032959087072e-13	1.810896364155472060e+00	-2.869680683254911119e-07	5.022618451531287183e-13
1.110000000000004196e-06	1.802822158594320934e+00	4.684770323845369740e-07	5.230344343491872383e-13	1.808049229225612953e+00	-3.675254210187592609e-07	5.074643350982889879e-13
1.120000000000004100e-06	1.799890779260719054e+00	5.961043287713150052e-07	5.287532230078916891e-13	1.805201676164158053e+00	-4.686321766870515982e-07	5.127488529408717924e-13
1.130000000000004004e-06	1.796959359584298976e+00	7.510409858567623980e-07	5.345624300859719804e-13	1.802353808617443987e+00	-5.889913552022387252e-07	5.181167467666331377e-13
1.140000000000003908e-06	1.794028048119802987e+00	9.556936874468459686e-07	5.404634336105652220e-13	1.799505738969698898e+00	-7.498438624786298138e-07	5.235693844111792640e-13
1.150000000000003813e-06	1.791097001776889019e+00	1.213485106284999353e-06	5.464576291289322266e-13	1.796657587884169960e+00	-9.525907814490963487e-07	5.291081537788334631e-13
1.160000000000003717e-06	1.788166385364962085e+00	1.537313702252720990e-06	5.525464300335043513e-13	1.793809483869635901e+00	-1.207499972067164191e-06	5.347344631713715069e-13
1.170000000000003621e-06	1.785236371160989988e+00	1.942785101370549291e-06	5.587312679060017399e-13	1.790961562870367008e+00	-1.527068944781226702e-06	5.404497416276576455e-13
1.180000000000003525e-06	1.782307138498526955e+00	2.448623802787608814e-06	5.650135928820971882e-13	1.788113967877708044e+00	-1.926372888838879625e-06	5.462554392748337689e-13
1.190000000000003430e-06	1.779378873376286085e+00	3.077078693962359705e-06	5.713948740377758302e-13	1.785266848561646968e+00	-2.423448145156652821e-06	5.521530276918281275e-13
1.200000000000003334e-06	1.776451768084726046e+00	3.854361341788941045e-06	5.778765997989769496e-13	1.782420360920804914e+00	-3.039680059385572859e-06	5.581440002861651822e-13
1.210000000000003238e-06	1.773526020849282014e+00	4.811035353274842707e-06	5.844602783756892163e-13	1.779574666949468087e+00	-3.800196068274806478e-06	5.642298726847874405e-13
1.220000000000003142e-06	1.770601835488909037e+00	5.982419612205154013e-06	5.911474382221126152e-13	1.776729934320320892e+00	-4.734262416485817195e-06	5.704121831398765061e-13
1.230000000000003047e-06	1.767679421088790948e+00	7.408952571302974926e-06	5.979396285241988198e-13	1.773886336081714088e+00	-5.875642499242538801e-06	5.766924929506005846e-13
1.240000000000002951e-06	1.764758991686075085e+00	9.136532918424616643e-06	6.048384197161437966e-13	1.771044050368304035e+00	-7.262968442480793098e-06	5.830723869017118582e-13
1.250000000000002855e-06	1.761840765967646938e+00	1.121685140553118106e-05	6.118454040273532104e-13	1.768203260124068921e+00	-8.940073307366720387e-06	5.895534737200692017e-13
1.260000000000002759e-06	1.758924966979021898e+00	1.370773371939540015e-05	6.189621960612875034e-13	1.765364152836752965e+00	-1.095633457392365171e-05	5.961373865500105605e-13
1.270000000000002664e-06	1.756011821843461052e+00	1.667351399567373567e-05	6.261904334078802883e-13	1.762526920282821985e+00	-1.336701429268550699e-05	6.028257834487204410e-13
1.280000000000002568e-06	1.753101561490542082e+00	2.018552341931274875e-05	6.335317772910293212e-13	1.759691758282148966e+00	-1.623366211573140533e-05	6.096203479026312336e-13
1.290000000000002472e-06	1.750194420393482053e+00	2.432273278577218816e-05	6.409879132527223260e-13	1.756858866461679991e+00	-1.962460218256443373e-05	6.165227893659863536e-13
1.300000000000002376e-06	1.747290636314480006e+00	2.917264832803078539e-05	6.485605518753822587e-13	1.754028448027344034e+00	-2.361556832481164346e-05	6.235348438227341759e-13
1.310000000000002281e-06	1.744390450057530906e+00	3.483255557059521980e-05	6.562514295440929362e-13	1.751200709543617062e+00	-2.829058924584105679e-05	6.306582743728323810e-13
1.320000000000002185e-06	1.741494105228093003e+00	4.141116262848802861e-05	6.640623092501997511e-13	1.748375860720094099e+00	-3.374314059020483436e-05	6.378948718443235409e-13
1.330000000000002089e-06	1.738601847999138972e+00	4.902844250673935934e-05	6.719949814379191329e-13	1.745554114204570961e+00	-4.007805079813541056e-05	6.452464554321433206e-13
1.340000000000001993e-06	1.735713926883067915e+00	5.781743362578667768e-05	6.800512648955106485e-13	1.742735685382089006e+00	-4.740884004383653873e-05	6.527148733652128647e-13
1.350000000000001898e-06	1.732830592509081002e+00	6.793718423982775018e-05	6.882330076926128892e-13	1.739920792179485032e+00	-5.586651106368264877e-05	6.603020036027657376e-13
1.360000000000001802e-06	1.729952097405625056e+00	7.956368820814994328e-05	6.965420881652733080e-13	1.737109654875045095e+00	-6.560094355548284645e-05	6.680097545612976111e-13
1.370000000000001706e-06	1.727078695787505058e+00	9.289867680571936906e-05	7.049804159501470370e-13	1.734302495912805941e+00	-7.678134970307191561e-05	6.758400658735091217e-13
1.380000000000001610e-06	1.724210643347396932e+00	1.081716549551367746e-04	7.135499330694050473e-13	1.731499539721218062e+00	-8.960049400085450108e-05	6.837949091803282775e-13
1.390000000000001515e-06	1.721348197051417950e+00	1.256417873078721477e-04	7.222526150677805366e-13	1.728701012535752035e+00	-1.042774612141110426e-04	6.918762889575024921e-13
1.400000000000001419e-06	1.718491614938516099e+00	1.455979024962366470e-04	7.310904722031726369e-13	1.725907142225217905e+00	-1.210596369667639688e-04	7.000862433778311781e-13
1.410000000000001323e-06	1.715641155923435024e+00	1.683557171119416294e-04	7.400655506921748330e-13	1.723118158121470067e+00	-1.402232457031566890e-04	7.084268452105272582e-13
1.420000000000001227e-06	1.712797079603026962e+00	1.942508771322864591e-04	7.491799340118664055e-13	1.720334290852252979e+00	-1.620715129384739091e-04	7.169002027588376985e-13
1.430000000000001132e-06	1.709959646065758010e+00	2.236266919170744067e-04	7.584357442589947798e-13	1.717555772176976969e+00	-1.869294011863657432e-04	7.255084608372869229e-13
1.440000000000001036e-06	1.707129115704201894e+00	2.568147452341670313e-04	7.678351435679109218e-13	1.714782834825181013e+00	-2.151338164962627469e-04	7.342538017896626076e-13
1.450000000000000940e-06	1.704305749030412098e+00	2.941074303232813435e-04	7.773803355882383421e-13	1.712015712337527029e+00	-2.470178177266441934e-04	7.431384465491091292e-13
1.460000000000000844e-06	1.701489806494018042e+00	3.357210692411196533e-04	7.870735670233022119e-13	1.709254638909126989e+00	-2.828877906312056911e-04	7.521646557414024265e-13
1.470000000000000749e-06	1.698681548302976019e+00	3.817494261190536916e-04	7.969171292303128832e-13	1.706499849235084909e+00	-3.229924436190008820e-04	7.613347308326622920e-13
1.480000000000000653e-06	1.695881234246845004e+00	4.321079091277688772e-04	8.069133598831152423e-13	1.703751578358077001e+00	-3.674829053412791884e-04	7.706510153225042642e-13
1.490000000000000557e-06	1.693089123521082096e+00	4.917737478143243898e-04	8.170646446389261403e-13	1.701010061518875016e+00	-4.110087473440509351e-04	7.801158960204485810e-13
1.500000000000000462e-06	1.690305474560646948e+00	5.642068763898602443e-04	8.273734191461667969e-13	1.698275534004211051e+00	-4.708921718991326681e-04	7.897318042006971314e-13
1.510000000000000366e-06	1.687530544863079074e+00	6.473979726814691913e-04	8.378421705983522769e-13	1.695548231004720074e+00	-5.396237183958449077e-04	7.995012171187875868e-13
1.520000000000000270e-06	1.684764590826048902e+00	7.427999427511705740e-04	8.484734398391358933e-13	1.692828387466829954e+00	-6.184741750588629555e-04	8.094266592861859301e-13
1.530000000000000174e-06	1.682007867581541971e+00	8.519554343890815059e-04	8.592698233037308818e-13	1.690116237949887079e+00	-7.088270622723498015e-04	8.195107039311262918e-13
1.540000000000000079e-06	1.679260628833463054e+00	9.764718690118736602e-04	8.702339750687712945e-13	1.687412016484185040e+00	-8.121651308448187044e-04	8.297559744848688200e-13
1.549999999999999983e-06	1.676523126697581967e+00	1.117990723921564317e-03	8.813686089673836449e-13	1.684715956430530959e+00	-9.300506819074096359e-04	8.401651461194852868e-13
1.559999999999999887e-06	1.673795611543847928e+00	1.278152580344091424e-03	8.926765007693483366e-13	1.682028290341327947e+00	-1.064100588074161314e-03	8.507409473377447561e-13
1.569999999999999791e-06	1.671078331841099995e+00	1.458559890123516025e-03	9.041604904258768027e-13	1.679349249823165913e+00	-1.215956376165446690e-03	8.614861616153046912e-13
1.579999999999999696e-06	1.668371534004208012e+00	1.660740700486124360e-03	9.158234843786652839e-13	1.676679065400902058e+00	-1.387251311593730354e-03	8.724036290958550518e-13
1.589999999999999600e-06	1.665675462243672911e+00	1.886116875940017099e-03	9.276684579324606694e-13	1.674017966383235967e+00	-1.579576253948014814e-03	8.834962483391360143e-13
1.599999999999999504e-06	1.662990358417778092e+00	2.135981453598386620e-03	9.396984576900833206e-13	1.671366180729807915e+00	-1.794447423935219190e-03	8.947669781218630403e-13
1.609999999999999408e-06	1.660316461887320072e+00	2.411489948408162068e-03	9.519166040491843061e-13	1.668723934919841945e+00	-2.033279860839044828e-03	9.062188392915819112e-13
1.619999999999999313e-06	1.657654009372979020e+00	2.713670485480369505e-03	9.643260937591884079e-13	1.666091453822325041e+00	-2.297369901115087990e-03	9.178549166731142554e-13
1.629999999999999217e-06	1.655003234815412005e+00	3.043457385311932814e-03	9.769302025369947181e-13	1.663468960567801913e+00	-2.587891905704640342e-03	9.296783610270797080e-13
1.639999999999999121e-06	1.652364369238151998e+00	3.401751353685056670e-03	9.897322877398530670e-13	1.660856676421808009e+00	-2.905912756645962110e-03	9.416923910600956551e-13
1.649999999999999025e-06	1.649737640613357925e+00	3.789507974908681680e-03	1.002735791093365294e-12	1.658254820659980977e+00	-3.252428172698814367e-03	9.539002954856787466e-13
1.659999999999998930e-06	1.647123273730541904e+00	4.207852750137039063e-03	1.015944241472536339e-12	1.655663610444926936e+00	-3.628423314333873578e-03	9.663054351348966986e-13
