# wavelength [m]	effective refractive index	transmission [dB/m]	effective mode area [m]	effective refractive index	transmission [dB/m]	effective mode area [m]	
5.500000000000095572e-07	1.998508065571108938e+00	1.780861234036611414e-08	8.229825145765195246e-13	2.001985285154769922e+00	1.763349918754211581e-10	8.239974386632773208e-13
5.600000000000094614e-07	1.995755872448742085e+00	2.170646155121305375e-08	8.270978605207144731e-13	1.999405419922658966e+00	2.758670870030703182e-10	8.273133835641075053e-13
5.700000000000093657e-07	1.993079797477945059e+00	-1.229778179310812827e-08	8.312637110606046151e-13	1.996906305576177987e+00	3.724354179492644093e-09	8.306437204202720409e-13
5.800000000000092699e-07	1.990473301562549979e+00	-1.655046689905993660e-08	8.354808517497459704e-13	1.994481413240142942e+00	4.114377387315604699e-09	8.339889030862864292e-13
5.900000000000091742e-07	1.987930455209304004e+00	-1.187164693094366235e-08	8.397500575095771240e-13	1.992124821861821937e+00	1.545079504922799121e-08	8.373493684810186772e-13
6.000000000000090785e-07	1.985445872208015938e+00	1.035357801417776395e-08	8.440720935824554899e-13	1.989831151917893060e+00	1.231485712040076342e-09	8.407255385240973006e-13
6.100000000000089827e-07	1.983014651656973992e+00	1.289658282555919169e-08	8.484477168589327228e-13	1.987595507466163980e+00	1.926236399393284785e-09	8.441178209339473503e-13
6.200000000000088870e-07	1.980632327144558946e+00	-1.387213606945416595e-08	8.528776762371484370e-13	1.985413425352754890e+00	-8.445721234259731968e-09	8.475266111243514741e-13
6.300000000000087912e-07	1.978294822086618110e+00	2.001402442513270261e-08	8.573627132547257147e-13	1.983280830574537967e+00	4.019694895100736734e-09	8.509522934782284924e-13
6.400000000000086955e-07	1.975998410374804060e+00	-2.485127330848169882e-09	8.619035635258047616e-13	1.981193996952048897e+00	2.297560333483725016e-09	8.543952413930489659e-13
6.500000000000085997e-07	1.973739681620932052e+00	8.784036431603745025e-08	8.665009560668746525e-13	1.979149512397667898e+00	-1.592628810394137069e-08	8.578558197794952897e-13
6.600000000000085040e-07	1.971515510388549108e+00	1.024877740020955314e-07	8.711556151798308109e-13	1.977144248170868979e+00	-1.992153345880427783e-08	8.613343843346597311e-13
6.700000000000084082e-07	1.969323028894174099e+00	-3.795057708267945275e-09	8.758682599130974349e-13	1.975175331602252005e+00	7.776814025418768241e-09	8.648312834667379117e-13
6.800000000000083125e-07	1.967159602734382950e+00	-1.793233707435092712e-08	8.806396047059780716e-13	1.973240121843109041e+00	-4.309754639495030144e-08	8.683468583788277970e-13
6.900000000000082168e-07	1.965022809258629932e+00	-1.123614571276907192e-07	8.854703602909530541e-13	1.971336188260544020e+00	-1.495260280019113901e-08	8.718814443651074798e-13
7.000000000000081210e-07	1.962910418261397894e+00	-1.281663802067934720e-07	8.903612328982276068e-13	1.969461291151048954e+00	-1.687651180272116223e-08	8.754353703647145210e-13
7.100000000000080253e-07	1.960820374711295999e+00	-1.441339096927087848e-07	8.953129257649198437e-13	1.967613364491012984e+00	-1.895776626219509319e-08	8.790089604902857546e-13
7.200000000000079295e-07	1.958750783273925045e+00	1.586629193026132738e-08	9.003261382277446106e-13	1.965790500480347092e+00	-4.865422624110665394e-09	8.826025339927767666e-13
7.300000000000078338e-07	1.956699894416938035e+00	1.136263316671444549e-07	9.054015679394127357e-13	1.963990935668199045e+00	-7.205800547460841149e-09	8.862164060330211748e-13
7.400000000000077380e-07	1.954666091914305959e+00	-7.432922240509557301e-08	9.105399080044915009e-13	1.962213038477297999e+00	-1.343724848885796280e-08	8.898508875646679113e-13
7.500000000000076423e-07	1.952647881589991918e+00	-9.291281208664957712e-08	9.157418498672950178e-13	1.960455297967361954e+00	-1.666351838354240944e-08	8.935062865329828227e-13
7.600000000000075466e-07	1.950643881161165050e+00	-1.153591824445412005e-07	9.210080819522842498e-13	1.958716313698094069e+00	-2.051957898002990050e-08	8.971829074311345303e-13
7.700000000000074508e-07	1.948652811060050949e+00	4.332050482400092033e-07	9.263392905311301096e-13	1.956994786570039890e+00	1.389259423228163702e-08	9.008810521742731133e-13
7.800000000000073551e-07	1.946673486126387020e+00	5.213516539097928549e-07	9.317361588690079349e-13	1.955289510536392106e+00	1.405069764856934808e-08	9.046010198532211278e-13
7.900000000000072593e-07	1.944704808078072000e+00	-4.395592323648011754e-07	9.371993675636215825e-13	1.953599365092091977e+00	4.847899703499972819e-08	9.083431075548828898e-13
8.000000000000071636e-07	1.942745758676992951e+00	-5.095351630997794474e-07	9.427295975198240747e-13	1.951923308457560902e+00	5.538562984447168635e-08	9.121076106639426494e-13
8.100000000000070678e-07	1.940795393515442946e+00	-5.896780191328897656e-07	9.483275247403404571e-13	1.950260371384548108e+00	6.294044691218786937e-08	9.158948225181778645e-13
8.200000000000069721e-07	1.938852836362559895e+00	-1.761553841570978985e-07	9.539938236050322389e-13	1.948609651519584984e+00	-1.119326505863929302e-07	9.197050355845274701e-13
8.300000000000068763e-07	1.936917274009255063e+00	-5.564303002726206146e-06	9.597291701303341362e-13	1.946970308268642036e+00	5.062130905711351160e-07	9.235385388140823095e-13
8.400000000000067806e-07	1.934987951569846043e+00	-6.636209104533766364e-06	9.655342285678172305e-13	1.945341558111590929e+00	5.861900669009200828e-07	9.273956238029742989e-13
8.500000000000066849e-07	1.933064168180016029e+00	-7.864397363816131811e-06	9.714096696429323920e-13	1.943722670323658974e+00	6.745865247447688575e-07	9.312765785770503574e-13
8.600000000000065891e-07	1.931145273069623025e+00	-9.263378375719420781e-06	9.773561590718012398e-13	1.942112963061938036e+00	7.713694238067796943e-07	9.351816911687637416e-13
8.700000000000064934e-07	1.929230661962384907e+00	-1.084914800749892718e-05	9.833743602416864350e-13	1.940511799783013025e+00	8.763961038426458836e-07	9.391112490626746532e-13
8.800000000000063976e-07	1.927319773777437906e+00	3.572556294037405676e-08	9.894649313097336340e-13	1.938918585959471086e+00	4.515484332952816910e-07	9.430655388736507272e-13
8.900000000000063019e-07	1.925412087592307975e+00	3.615279375598302298e-08	9.956285361096293814e-13	1.937332766067632051e+00	5.014817871627009325e-07	9.470448483912465415e-13
9.000000000000062061e-07	1.923507119870212945e+00	3.419699494918855167e-08	1.001865828145092013e-12	1.935753820820129922e+00	5.550869576089636459e-07	9.510494638792186223e-13
9.100000000000061104e-07	1.921604421892048054e+00	-2.277909817188335835e-06	1.008177459718181907e-12	1.934181264622085950e+00	-1.365561798565904000e-07	9.550796734810863891e-13
9.200000000000060147e-07	1.919703577401294936e+00	-2.535628474015623177e-06	1.014564083567597310e-12	1.932614643230065932e+00	-1.480379307483959103e-07	9.591357613843608162e-13
9.300000000000059189e-07	1.917804200429106043e+00	-2.809360325141171718e-06	1.021026346468006493e-12	1.931053531594616901e+00	-1.595806879213143296e-07	9.632180160698113003e-13
9.400000000000058232e-07	1.915905933290080965e+00	-3.099637554478648156e-06	1.027564893278981542e-12	1.929497531871728011e+00	-1.711200101903401050e-07	9.673267250717647911e-13
9.500000000000057274e-07	1.914008444730125102e+00	-3.407237411000446850e-06	1.034180365793206502e-12	1.927946271587134941e+00	-1.825898604077593753e-07	9.714621764059289846e-13
9.600000000000056317e-07	1.912111428214886999e+00	5.460783513859836801e-07	1.040873403410011413e-12	1.926399401940608991e+00	-4.445711966268230295e-07	9.756246586002978992e-13
9.700000000000055359e-07	1.910214600344048108e+00	-2.366373605683817091e-06	1.047644638629886528e-12	1.924856596238212925e+00	1.148882611642784766e-07	9.798144607926525590e-13
9.800000000000054402e-07	1.908317699387809041e+00	-2.495117518488186024e-06	1.054494706466607395e-12	1.923317548441296099e+00	1.238457926788704069e-07	9.840318735188007062e-13
9.900000000000053444e-07	1.906420483923946030e+00	-2.623126691871108878e-06	1.061424233901602128e-12	1.921781971823224966e+00	1.333230764126578221e-07	9.882771874344741059e-13
1.000000000000005249e-06	1.904522731577986905e+00	-2.749700530329765307e-06	1.068433845381409507e-12	1.920249597723796997e+00	1.433658359475554542e-07	9.925506944135358158e-13
1.010000000000005153e-06	1.902624237851709976e+00	-2.874045870015142922e-06	1.075524161444395991e-12	1.918720174394112910e+00	1.540293600286473074e-07	9.968526873655749461e-13
1.020000000000005057e-06	1.900724815034751991e+00	-2.995229040041891734e-06	1.082695798564674646e-12	1.917193465924190043e+00	1.653708891989411460e-07	1.001183460316463469e-12
1.030000000000004961e-06	1.898824291192368952e+00	-3.112185426680829732e-06	1.089949368992640240e-12	1.915669251246695959e+00	1.774577537584168142e-07	1.005543308486260637e-12
1.040000000000004866e-06	1.896922509223248898e+00	-3.223674925245171713e-06	1.097285480592650997e-12	1.914147323210759088e+00	1.903698212267858611e-07	1.009932528364589820e-12
1.050000000000004770e-06	1.895019325981855962e+00	-3.328275762112346560e-06	1.104704736678037367e-12	1.912627487720276909e+00	2.041816659291535829e-07	1.014351417783674952e-12
1.060000000000004674e-06	1.893114611460188890e+00	-3.424343037286393409e-06	1.112207735844196126e-12	1.911109562931684103e+00	2.189994101606244918e-07	1.018800275989324792e-12
1.070000000000004578e-06	1.891208248024413008e+00	-3.509972701919095368e-06	1.119795071799941051e-12	1.909593378506571959e+00	2.349215773141770056e-07	1.023279403709840136e-12
1.080000000000004483e-06	1.889300129700979936e+00	-8.271379386716506537e-06	1.127467331930844078e-12	1.908078774914963027e+00	3.862594941850030435e-07	1.027789104637201061e-12
1.090000000000004387e-06	1.887390161514916009e+00	-9.744513698446900484e-06	1.135225101429037306e-12	1.906565602785369018e+00	3.418729838987813644e-07	1.032329679967727599e-12
1.100000000000004291e-06	1.885478258860961098e+00	-1.151096235541636446e-05	1.143068957612205414e-12	1.905053722298128971e+00	2.806573476322020831e-07	1.036901436571467726e-12
1.110000000000004196e-06	1.883564346924704092e+00	-1.363995904322523245e-05	1.150999472879466502e-12	1.903543002618748092e+00	1.997785710298354756e-07	1.041504681762884727e-12
1.120000000000004100e-06	1.881648360135981024e+00	-1.622236584852061492e-05	1.159017213871312833e-12	1.902033321368379104e+00	9.627919476129022436e-08	1.046139724658734952e-12
1.130000000000004004e-06	1.879730241657467937e+00	-1.938017444559289332e-05	1.167122741292192700e-12	1.900524564128607041e+00	-3.285693634860552873e-08	1.050806876237777898e-12
1.140000000000003908e-06	1.877809942905128926e+00	-2.328175986499857276e-05	1.175316609729905564e-12	1.899016623978142970e+00	-1.906091047811333768e-07	1.055506449399490486e-12
1.150000000000003813e-06	1.875887423098181905e+00	-2.816726848408697260e-05	1.183599367468604501e-12	1.897509401059080947e+00	-3.797238453277003577e-07	1.060238759021556715e-12
1.160000000000003717e-06	1.873962648836466016e+00	-3.439306770254514975e-05	1.191971556288783491e-12	1.896002802170613899e+00	-6.026282333808257877e-07	1.065004122016560029e-12
1.170000000000003621e-06	1.872035593703281098e+00	-4.251398366259377952e-05	1.200433711239320088e-12	1.894496740388291078e+00	-8.611899670747792816e-07	1.069802857387663318e-12
1.180000000000003525e-06	1.870106237891880019e+00	-5.344719724157710738e-05	1.208986360346538271e-12	1.892991134707000977e+00	-1.156580772196793698e-06	1.074635286283568163e-12
1.190000000000003430e-06	1.868174567853962076e+00	-6.883037471596366503e-05	1.217630024168886389e-12	1.891485909706051016e+00	-1.489112795669148404e-06	1.079501732052690921e-12
1.200000000000003334e-06	1.866240575983570960e+00	-3.481242554303151302e-07	1.226365276975368344e-12	1.889980995234977090e+00	2.692496803677842562e-07	1.084402516728871964e-12
1.210000000000003238e-06	1.864304260251169021e+00	-4.274201646600213184e-07	1.235192526560811616e-12	1.888476326117668913e+00	3.256039794321126786e-07	1.089337975095912686e-12
1.220000000000003142e-06	1.862365623984935104e+00	-5.231407003824352262e-07	1.244112317403787749e-12	1.886971841876003086e+00	3.926557513701625191e-07	1.094308434112524054e-12
1.230000000000003047e-06	1.860424675546064943e+00	-6.382334457722373650e-07	1.253125142424079719e-12	1.885467486468547005e+00	4.722291703622257990e-07	1.099314226458887201e-12
1.240000000000002951e-06	1.858481428077932041e+00	-7.766005213718747705e-07	1.262231486959746062e-12	1.883963208045583038e+00	5.663709308188946126e-07	1.104355687276800868e-12
1.250000000000002855e-06	1.856535899258513034e+00	-9.397695285905967786e-07	1.271431828647578330e-12	1.882458958718493003e+00	6.773805368173183765e-07	1.109433154220466579e-12
1.260000000000002759e-06	1.854588111066316047e+00	-1.133892960137356069e-06	1.280726637302264064e-12	1.880954694342731992e+00	8.078393320985618904e-07	1.114546967506812162e-12
1.270000000000002664e-06	1.852638089558908963e+00	-1.378363639670843670e-06	1.290116374814490699e-12	1.879450374313472061e+00	9.524205042333101726e-07	1.119697469965346947e-12
1.280000000000002568e-06	1.850685864662324986e+00	-1.215780293558480684e-05	1.299601492129624558e-12	1.877945961373258976e+00	2.720030628901516158e-06	1.124885004362814303e-12
1.290000000000002472e-06	1.848731469975944952e+00	-1.308783506700313796e-05	1.309182440811859794e-12	1.876441421430042000e+00	2.900961734301701007e-06	1.130109924269408552e-12
1.300000000000002376e-06	1.846774942578881973e+00	-1.406103235864761131e-05	1.318859655519499050e-12	1.874936723387069071e+00	3.103059194563772830e-06	1.135372578012973786e-12
1.310000000000002281e-06	1.844816322854762047e+00	-1.508618108324885041e-05	1.328633565525623118e-12	1.873431838981054032e+00	3.332769828881420701e-06	1.140673319366982147e-12
1.320000000000002185e-06	1.842855654321204018e+00	-1.617407176121010760e-05	1.338504591766993443e-12	1.871926742630201979e+00	3.597486729102707723e-06	1.146012504962762083e-12
1.330000000000002089e-06	1.840892983468666921e+00	-1.733760188885163900e-05	1.348473146791080454e-12	1.870421411290664082e+00	3.905658435174712227e-06	1.151390494337922949e-12
1.340000000000001993e-06	1.838928359607215013e+00	-1.859192066230680679e-05	1.358539634713828886e-12	1.868915824320994901e+00	4.266801392182727378e-06	1.156807649984514246e-12
1.350000000000001898e-06	1.836961834720751030e+00	-1.995443735339903996e-05	1.368704451188694849e-12	1.867409963354174085e+00	4.691601991996828420e-06	1.162264337397121448e-12
1.360000000000001802e-06	1.834993463328266072e+00	-2.144496611190543171e-05	1.378967983387036436e-12	1.865903812176701981e+00	5.191973616059217362e-06	1.167760925120739282e-12
1.370000000000001706e-06	1.833023302351620032e+00	-2.308575448960496499e-05	1.389330609990776943e-12	1.864397356614325929e+00	5.781043788997251090e-06	1.173297784798600173e-12
1.380000000000001610e-06	1.831051410989535055e+00	-2.490158633440279755e-05	1.399792701197256674e-12	1.862890584424047091e+00	6.473299887978928302e-06	1.178875291219894250e-12
1.390000000000001515e-06	1.829077850597353949e+00	-2.691972719620142605e-05	1.410354618737097097e-12	1.861383485191969944e+00	7.284517381152408901e-06	1.184493822367405936e-12
1.400000000000001419e-06	1.827102684572277091e+00	-2.917012874037734057e-05	1.421016715905018974e-12	1.859876050236707989e+00	8.231934604654694284e-06	1.190153759465091785e-12
1.410000000000001323e-06	1.825125978243715030e+00	-3.168537308987231604e-05	1.431779337604357443e-12	1.858368272517975983e+00	9.334097783275562080e-06	1.195855487025601151e-12
1.420000000000001227e-06	1.823147798768461003e+00	-3.450091908215694998e-05	1.442642820405447921e-12	1.856860146550076029e+00	1.061099453649523667e-05	1.201599392897808183e-12
1.430000000000001132e-06	1.821168215030424919e+00	-3.765511431974896396e-05	1.453607492618090442e-12	1.855351668320009972e+00	1.208403646394232211e-05	1.207385868314229506e-12
1.440000000000001036e-06	1.819187297544629045e+00	-4.118955588909343184e-05	1.464673674378746727e-12	1.853842835209922990e+00	1.377601951099717605e-05	1.213215307938563478e-12
1.450000000000000940e-06	1.817205118365246896e+00	-4.514932025100147612e-05	1.475841677752290470e-12	1.852333645923645022e+00	1.571120127308181860e-05	1.219088109913100807e-12
1.460000000000000844e-06	1.815221750997425110e+00	-4.958350377524060177e-05	1.487111806849015628e-12	1.850824100417093998e+00	1.791524631622407737e-05	1.225004675906224024e-12
1.470000000000000749e-06	1.813237270312719973e+00	-5.454578028645774114e-05	1.498484357956906160e-12	1.849314199832325034e+00	2.041525018003535614e-05	1.230965411159909783e-12
1.480000000000000653e-06	1.811251752467883946e+00	-6.009505667732033458e-05	1.509959619689313812e-12	1.847803946435004896e+00	2.323990927289847644e-05	1.236970724537233992e-12
1.490000000000000557e-06	1.809265274826864944e+00	-6.629659115276306987e-05	1.521537873148499564e-12	1.846293343555136079e+00	2.641935621299785884e-05	1.243021028569911468e-12
1.500000000000000462e-06	1.807277915885812991e+00	-7.322298144037189544e-05	1.533219392104932296e-12	1.844782395530838892e+00	2.998556389962700355e-05	1.249116739505907904e-12
1.510000000000000366e-06	1.805289755200943924e+00	-8.095545572088901748e-05	1.545004443192681328e-12	1.843271107655034990e+00	3.397228443377907353e-05	1.255258277357059899e-12
1.520000000000000270e-06	1.803300873319088948e+00	-8.958542172269526175e-05	1.556893286120829327e-12	1.841759486124840972e+00	3.841533902792765000e-05	1.261446065946719431e-12
1.530000000000000174e-06	1.801311351711786024e+00	-9.021405969216203470e-05	1.568886174727594042e-12	1.840247537993239924e+00	4.733967538852392479e-05	1.267680536259697010e-12
1.540000000000000079e-06	1.799321272706819963e+00	-1.015972753470250841e-04	1.580983353773374508e-12	1.838735271124797066e+00	5.318143603471266775e-05	1.273962113248950414e-12
1.549999999999999983e-06	1.797330719431994073e+00	-1.141582202116695377e-04	1.593185064594870421e-12	1.837222694150475011e+00	5.959324298961119669e-05	1.280291235789935651e-12
1.559999999999999887e-06	1.795339775751098044e+00	-1.280051735523026477e-04	1.605491541641001792e-12	1.835709816427824048e+00	6.661504469260219716e-05	1.286668343429931855e-12
1.569999999999999791e-06	1.793348526206929083e+00	-1.432583539346730765e-04	1.617903013736444704e-12	1.834196648001648056e+00	7.428969590619431673e-05	1.293093879766895570e-12
1.579999999999999696e-06	1.791357055965244971e+00	-1.600501275249823147e-04	1.630419704390259750e-12	1.832683199566943921e+00	8.266251643165463121e-05	1.299568292497396228e-12
1.589999999999999600e-06	1.789365450760576071e+00	-1.785258402518435429e-04	1.643041832120574759e-12	1.831169482433691043e+00	9.178250732027669974e-05	1.306092033464687135e-12
1.599999999999999504e-06	1.787373796843781948e+00	-1.988435607762359468e-04	1.655769610794995874e-12	1.829655508493380101e+00	1.017025321968586138e-04	1.312665558706778683e-12
1.609999999999999408e-06	1.785382180931299079e+00	-2.211727346088261648e-04	1.668603249986769590e-12	1.828141290187230927e+00	1.124798666884447174e-04	1.319289328504551745e-12
1.619999999999999313e-06	1.783390690155949976e+00	-2.456924263541622531e-04	1.681542955346204219e-12	1.826626840475954028e+00	1.241768610990271100e-04	1.325963807429935897e-12
1.629999999999999217e-06	1.781399412019275097e+00	-2.725876627481188877e-04	1.694588928987314220e-12	1.825112172811006905e+00	1.368610763002525233e-04	1.332689464394102382e-12
1.639999999999999121e-06	1.779408434345312040e+00	-3.020448344057094676e-04	1.707741369889305114e-12	1.823597301107277913e+00	1.506061262138853863e-04	1.339466772695726343e-12
1.649999999999999025e-06	1.777417845235732985e+00	-3.342445810286921531e-04	1.721000474312487005e-12	1.822082239717087937e+00	1.654916559559486619e-04	1.346296210069211694e-12
1.659999999999998930e-06	1.775427733026311961e+00	-3.693534074931959237e-04	1.734366436228381236e-12	1.820567003405481055e+00	1.816036535387881257e-04	1.353178258732986272e-12
