# wavelength [m]	effective refractive index	transmission [dB/m]	effective mode area [m]	effective refractive index	transmission [dB/m]	effective mode area [m]	
5.500000000000095572e-07	1.993636008159854978e+00	-3.476352300565185633e-11	5.561699555539233918e-13	1.996576919011656015e+00	7.442679386851892679e-12	5.539567383173883664e-13
5.600000000000094614e-07	1.990719856697577006e+00	8.052134345719201014e-13	5.592947725081782447e-13	1.993805212119021064e+00	-1.459364971510868810e-11	5.565871910947924913e-13
5.700000000000093657e-07	1.987877766981479111e+00	2.095483584819787316e-12	5.624575463639115406e-13	1.991111349118076967e+00	-1.684680084071860232e-11	5.592353001410587919e-13
5.800000000000092699e-07	1.985103223590297894e+00	4.027031500324659621e-12	5.656589498211038502e-13	1.988488817498307082e+00	-1.963418938280258793e-11	5.619015138712286949e-13
5.900000000000091742e-07	1.982390320595593058e+00	6.673146068543620101e-12	5.688996493163041532e-13	1.985931712634289026e+00	-2.279573698191298126e-11	5.645862706168954358e-13
6.000000000000090785e-07	1.979733695247186009e+00	1.053720622701498484e-11	5.721803059030534370e-13	1.983434671493877977e+00	-2.665352901188136832e-11	5.672899998001595446e-13
6.100000000000089827e-07	1.977128470004418936e+00	1.563367688773375315e-11	5.755015760455113828e-13	1.980992814691628912e+00	-3.141971751535285497e-11	5.700131229896708053e-13
6.200000000000088870e-07	1.974570201723929053e+00	1.497137678347504033e-10	5.788641123345177023e-13	1.978601695698168017e+00	1.315246231630036702e-11	5.727560548529280138e-13
6.300000000000087912e-07	1.972054837003510031e+00	6.835153082924320161e-12	5.822685641350802832e-13	1.976257256205103952e+00	-1.545334765151917580e-12	5.755192040166222432e-13
6.400000000000086955e-07	1.969578672837378086e+00	1.302999272804846818e-11	5.857155781703638938e-13	1.973955786800791090e+00	2.343315743724424167e-13	5.783029738477504025e-13
6.500000000000085997e-07	1.967138321867349049e+00	2.054403234740263733e-11	5.892057990522780781e-13	1.971693892241519919e+00	7.232455999149592874e-14	5.811077631613225750e-13
6.600000000000085040e-07	1.964730681621859043e+00	-9.062614525768042773e-10	5.927398697600824251e-13	1.969468460710023017e+00	-2.077643526689554000e-12	5.839339668664235999e-13
6.700000000000084082e-07	1.962352907224367060e+00	-1.067472414670749381e-09	5.963184320758352634e-13	1.967276636542913071e+00	-4.493765994140642562e-12	5.867819765551643558e-13
6.800000000000083125e-07	1.960002387127903090e+00	-1.245881192814089713e-09	5.999421269764925189e-13	1.965115795983809033e+00	-8.394470596354477936e-12	5.896521810424156969e-13
6.900000000000082168e-07	1.957676721495617000e+00	-1.445442493950593980e-09	6.036115949913957481e-13	1.962983525582016942e+00	-1.352758570083058108e-11	5.925449668604379226e-13
7.000000000000081210e-07	1.955373702900419008e+00	-1.663618208190236744e-09	6.073274765250251493e-13	1.960877602909919082e+00	-1.952763119774796721e-11	5.954607187140925461e-13
7.100000000000080253e-07	1.953091299061858077e+00	4.882679261371810957e-11	6.110904121498979364e-13	1.958795979317180969e+00	3.202145785425039924e-11	5.983998199004584380e-13
7.200000000000079295e-07	1.950827637376608914e+00	7.265435998445002454e-11	6.149010428689570573e-13	1.956736764478230084e+00	5.126654110406981707e-11	6.013626526968865661e-13
7.300000000000078338e-07	1.948580991031390042e+00	1.040085032313258985e-10	6.187600103574578083e-13	1.954698212521789102e+00	4.459339503559471241e-11	6.043495987201625849e-13
7.400000000000077380e-07	1.946349766514887003e+00	1.412624019181605232e-10	6.226679571764812045e-13	1.952678709559106052e+00	8.956673509337695840e-12	6.073610392605116027e-13
7.500000000000076423e-07	1.944132492369011977e+00	1.844131630624025150e-10	6.266255269673103164e-13	1.950676762451206914e+00	-5.103172736656650267e-11	6.103973555924203853e-13
7.600000000000075466e-07	1.941927809040066011e+00	2.327703281978610821e-10	6.306333646254585898e-13	1.948690988675757962e+00	-1.242000738927732741e-10	6.134589292648125562e-13
7.700000000000074508e-07	1.939734459707997960e+00	2.878073896931582484e-10	6.346921164563857881e-13	1.946720107171761027e+00	-2.054779322505687686e-10	6.165461423725743694e-13
7.800000000000073551e-07	1.937551281986872986e+00	4.207240193600784063e-09	6.388024303087649481e-13	1.944762930055200068e+00	-1.230269695296778050e-10	6.196593778113710695e-13
7.900000000000072593e-07	1.935377200402792042e+00	4.694730871303050100e-09	6.429649557176379398e-13	1.942818355111914030e+00	-1.504837833219808545e-10	6.227990195168839430e-13
8.000000000000071636e-07	1.933211219566721928e+00	5.043684336613717784e-09	6.471803439843957140e-13	1.940885358985154907e+00	-1.830780516927336957e-10	6.259654526910234156e-13
8.100000000000070678e-07	1.931052417969479018e+00	5.005919344412252084e-09	6.514492482892064043e-13	1.938962990985106938e+00	-2.199621307989085719e-10	6.291590640150436748e-13
8.200000000000069721e-07	1.928899942334594941e+00	4.027153003720150734e-09	6.557723237684774803e-13	1.937050367456103039e+00	-2.654533147086356386e-10	6.323802418517508688e-13
8.300000000000068763e-07	1.926753002472229914e+00	6.284232800833142707e-10	6.601502275838059767e-13	1.935146666644717905e+00	-3.174156180836131916e-10	6.356293764374123405e-13
8.400000000000067806e-07	1.924610866583732038e+00	-1.039696602466697202e-08	6.645836189752229947e-13	1.933251124018366074e+00	-3.778172332834794934e-10	6.389068600644290451e-13
8.500000000000066849e-07	1.922472856972128108e+00	-6.603637780696173849e-08	6.690731592514118270e-13	1.931363027989692949e+00	-4.484132362978946086e-10	6.422130872556179214e-13
8.600000000000065891e-07	1.920338346118757089e+00	2.361344601194569405e-07	6.736195128107013697e-13	1.929481716006949066e+00	-5.271500917870806713e-10	6.455484549308499097e-13
8.700000000000064934e-07	1.918206753090480055e+00	8.596029995293478614e-08	6.782233436310428285e-13	1.927606570974996103e+00	-2.432120660187481227e-10	6.489133625670397282e-13
8.800000000000063976e-07	1.916077540246261091e+00	5.185989176357921555e-09	6.828853211476673745e-13	1.925737017975293952e+00	-3.225120887447227736e-10	6.523082123501904950e-13
8.900000000000063019e-07	1.913950210214339975e+00	5.369090853847221969e-09	6.876061151912791899e-13	1.923872521256686952e+00	-3.490609882284540594e-10	6.557334093255823430e-13
9.000000000000062061e-07	1.911824303115092993e+00	5.467772412031434623e-09	6.923863982167907361e-13	1.922012581471699955e+00	-3.701840992213195941e-10	6.591893615378717941e-13
9.100000000000061104e-07	1.909699394006892925e+00	5.449007563883359313e-09	6.972268449325196568e-13	1.920156733135770066e+00	-3.777053712973495910e-10	6.626764801699001788e-13
9.200000000000060147e-07	1.907575090534556983e+00	5.271034179858336380e-09	7.021281322786733983e-13	1.918304542289047898e+00	-3.662790551451810329e-10	6.661951796758648675e-13
9.300000000000059189e-07	1.905451030762226106e+00	4.888456544500135280e-09	7.070909394120971584e-13	1.916455604342615082e+00	-3.214691685895680835e-10	6.697458779107607184e-13
9.400000000000058232e-07	1.903326881174197904e+00	4.247194209156130636e-09	7.121159476850361854e-13	1.914609542092629901e+00	-2.329762121244570946e-10	6.733289962562906578e-13
9.500000000000057274e-07	1.901202334828985929e+00	3.283006570921392804e-09	7.172038406181824335e-13	1.912766003887699906e+00	-7.409747603938686235e-11	6.769449597434624912e-13
9.600000000000056317e-07	1.899077109653197093e+00	1.924224812298946187e-09	7.223553038684167399e-13	1.910924661936094893e+00	1.751334398521443758e-10	6.805941971722975477e-13
9.700000000000055359e-07	1.896950946863249943e+00	9.597661976258848985e-11	7.275710251914952246e-13	1.909085210740812943e+00	5.501777494577977525e-10	6.842771412288073682e-13
9.800000000000054402e-07	1.894823609503988981e+00	-2.290090654139342582e-09	7.328516944001186450e-13	1.907247365651578930e+00	1.094719004805317804e-09	6.879942285995750824e-13
9.900000000000053444e-07	1.892694881094383996e+00	-5.320653173944065902e-09	7.381980033176037179e-13	1.905410861523981980e+00	1.859749877913281598e-09	6.917459000841071753e-13
1.000000000000005249e-06	1.890564564371334022e+00	-9.091448889915828882e-09	7.436106457275058817e-13	1.903575451476763991e+00	2.916814787688761848e-09	6.955326007052086835e-13
1.010000000000005153e-06	1.888432480123529045e+00	-1.370735564875619495e-08	7.490903173195107589e-13	1.901740905739234044e+00	4.345650114738887595e-09	6.993547798175451983e-13
1.020000000000005057e-06	1.886298466107954930e+00	-1.927592103867067840e-08	7.546377156318869425e-13	1.899907010581405986e+00	6.245891136726321407e-09	7.032128912146022056e-13
1.030000000000004961e-06	1.884162376042368026e+00	-2.593535151232590914e-08	7.602535399908241321e-13	1.898073567320198052e+00	8.745553288288792681e-09	7.071073932341552592e-13
1.040000000000004866e-06	1.882024078667672962e+00	-3.383146496074597164e-08	7.659384914469175375e-13	1.896240391395624947e+00	1.198375430564446980e-08	7.110387488624807024e-13
1.050000000000004770e-06	1.879883456874650971e+00	-2.407354326631773754e-08	7.716932727132994740e-13	1.894407311511433933e+00	1.978563021601834647e-08	7.150074258373583345e-13
1.060000000000004674e-06	1.877740406889905067e+00	-3.207729446179938935e-08	7.775185880807950882e-13	1.892574168835120085e+00	2.499698503828417922e-08	7.190138967499694196e-13
1.070000000000004578e-06	1.875594837516530999e+00	-4.201985161654066822e-08	7.834151433726120042e-13	1.890740816252729051e+00	3.154218602462081111e-08	7.230586391461295782e-13
1.080000000000004483e-06	1.873446669425194111e+00	-5.433154298818665281e-08	7.893836458561663245e-13	1.888907117674246017e+00	3.971975037682387575e-08	7.271421356264148004e-13
1.090000000000004387e-06	1.871295834491772947e+00	-6.952691252604143045e-08	7.954248041741712748e-13	1.887072947385681099e+00	4.991050256978401832e-08	7.312648739457589587e-13
1.100000000000004291e-06	1.869142275178087953e+00	-8.822277642543764030e-08	8.015393282706821886e-13	1.885238189444377932e+00	6.256253855543565536e-08	7.354273471124013515e-13
1.110000000000004196e-06	1.866985943952383042e+00	-1.111834033235875133e-07	8.077279293165705835e-13	1.883402737114258985e+00	7.820947951391037348e-08	7.396300534863391691e-13
1.120000000000004100e-06	1.864826802746712975e+00	-1.393104534809378399e-07	8.139913196346778460e-13	1.881566492338113017e+00	9.750598802868247704e-08	7.438734968773329473e-13
1.130000000000004004e-06	1.862664822448385049e+00	-1.736987251213142102e-07	8.203302126250485856e-13	1.879729365244138029e+00	1.212185587522408348e-07	7.481581866425541682e-13
1.140000000000003908e-06	1.860499982423049037e+00	-2.156735433592122860e-07	8.267453226905989851e-13	1.877891273684304085e+00	1.502818139032828223e-07	7.524846377839935527e-13
1.150000000000003813e-06	1.858332270067101000e+00	-2.668067550489124199e-07	8.332373651635082276e-13	1.876052142802205891e+00	1.857831800886463997e-07	7.568533710456269134e-13
1.160000000000003717e-06	1.856161680387260926e+00	-3.289935992326327970e-07	8.398070562328118191e-13	1.874211904628310998e+00	2.290305281368392212e-07	7.612649130104403505e-13
1.170000000000003621e-06	1.853988215605419043e+00	-4.044880334157474900e-07	8.464551128734226862e-13	1.872370497700656999e+00	2.815420399149776984e-07	7.657197961973975898e-13
1.180000000000003525e-06	1.851811884786924045e+00	-4.959359542594689226e-07	8.531822527771313681e-13	1.870527866709212006e+00	3.450943176173722636e-07	7.702185591583695564e-13
1.190000000000003430e-06	1.849632703490672991e+00	-6.064846238154617560e-07	8.599891942857951275e-13	1.868683962162243972e+00	4.217417898318972041e-07	7.747617465750671788e-13
1.200000000000003334e-06	1.847450693439455005e+00	-7.397645625275378170e-07	8.668766563272688133e-13	1.866838740073168079e+00	5.138373422812964592e-07	7.793499093561192939e-13
1.210000000000003238e-06	1.845265882209164987e+00	-9.751497979203738228e-07	8.738453583552716978e-13	1.864992161666489068e+00	5.903646486171048740e-07	7.839836047343308914e-13
1.220000000000003142e-06	1.843078302935573953e+00	-1.175977456308581311e-06	8.808960202880731177e-13	1.863144193101528900e+00	7.180050186645506460e-07	7.886633963635983488e-13
1.230000000000003047e-06	1.840887994037424980e+00	-1.288981309578624858e-06	8.880293624592582641e-13	1.861294805212720949e+00	9.023425450337586960e-07	7.933898544172315403e-13
1.240000000000002951e-06	1.838694998954746973e+00	-1.579071858185404535e-06	8.952461055707389316e-13	1.859443973265378025e+00	1.087181251438810299e-06	7.981635556850049828e-13
1.250000000000002855e-06	1.836499365901427039e+00	-2.078144669929494353e-06	9.025469706384232414e-13	1.857591676725897090e+00	1.214968092043178875e-06	8.029850836761570696e-13
1.260000000000002759e-06	1.834301147630958084e+00	-2.504621059377421755e-06	9.099326789628634525e-13	1.855737899045512007e+00	1.480572183706166769e-06	8.078550287006791448e-13
1.270000000000002664e-06	1.832100401214550978e+00	-3.016703314653586939e-06	9.174039520894612231e-13	1.853882627456516996e+00	1.795326251122411113e-06	8.127739879932037733e-13
1.280000000000002568e-06	1.829897187830783922e+00	-3.630311577857175912e-06	9.249615117835632340e-13	1.852025852780391890e+00	2.167686756245320053e-06	8.177425657958244832e-13
1.290000000000002472e-06	1.827691572566011891e+00	-4.363784871070495493e-06	9.326060800088043445e-13	1.850167569246901067e+00	2.607427449716124171e-06	8.227613734618922913e-13
1.300000000000002376e-06	1.825483624224822021e+00	-5.238013639637877328e-06	9.403383789129854414e-13	1.848307774323509900e+00	3.125734097589774970e-06	8.278310295561454517e-13
1.310000000000002281e-06	1.823273415149877952e+00	-6.276697960184242994e-06	9.481591308215704998e-13	1.846446468554447939e+00	3.735365085395153716e-06	8.329521599554535320e-13
1.320000000000002185e-06	1.821061021050544904e+00	-7.506507092870163658e-06	9.560690582389919770e-13	1.844583655408825074e+00	4.450763573562133961e-06	8.381253979499933547e-13
1.330000000000002089e-06	1.818846520839731973e+00	-8.957234167163592912e-06	9.640688838583681652e-13	1.842719341137224021e+00	5.288154490658216085e-06	8.433513843450447200e-13
1.340000000000001993e-06	1.816629996478390963e+00	-1.066199965481164853e-05	9.721593305801898803e-13	1.840853534636224031e+00	6.265674049161394703e-06	8.486307675633847022e-13
1.350000000000001898e-06	1.814411532827205908e+00	-1.265730657695344067e-05	9.803411215402103423e-13	1.838986247320379963e+00	7.403425080763454143e-06	8.539642037482726462e-13
1.360000000000001802e-06	1.812191217505014995e+00	-1.498327822782725227e-05	9.886149801471657023e-13	1.837117493001207080e+00	8.723579224450532402e-06	8.593523568670814986e-13
1.370000000000001706e-06	1.809969140753495909e+00	-1.768364019197121918e-05	9.969816301308264401e-13	1.835247287772687086e+00	1.025048235334629098e-05	8.647958988156351518e-13
1.380000000000001610e-06	1.807745395307770897e+00	-2.080592087900640289e-05	1.005441795600695079e-12	1.833375649902980964e+00	1.201066019113120472e-05	8.702955095231919211e-13
1.390000000000001515e-06	1.805520076272510988e+00	-2.440162432163654261e-05	1.013996201115905368e-12	1.831502599731883008e+00	1.403285837684774078e-05	8.758518770581881556e-13
1.400000000000001419e-06	1.803293281003212956e+00	-2.852638132110157752e-05	1.022645571766759356e-12	1.829628159573742030e+00	1.634810092053400109e-05	8.814656977346767535e-13
1.410000000000001323e-06	1.801065108992329078e+00	-3.324011584418648437e-05	1.031390633268318747e-12	1.827752353625474058e+00	1.898973372492150535e-05	8.871376762195717551e-13
1.420000000000001227e-06	1.798835661759927929e+00	-3.860763217651191551e-05	1.040232112066530206e-12	1.825875207879382067e+00	2.199342416578977657e-05	8.928685256406580163e-13
1.430000000000001132e-06	1.796605042748617986e+00	-4.469881750232654631e-05	1.049170735457293717e-12	1.823996750040494996e+00	2.539729687644805419e-05	8.986589676953884814e-13
1.440000000000001036e-06	1.794373357222464049e+00	-5.158955216660211101e-05	1.058207231718800986e-12	1.822117009448154024e+00	2.924189572878417811e-05	9.045097327605477133e-13
1.450000000000000940e-06	1.792140712169651984e+00	-5.936229500001935180e-05	1.067342330257776162e-12	1.820236017001600981e+00	3.357039014600831289e-05	9.104215600027075665e-13
1.460000000000000844e-06	1.789907216208662000e+00	-6.810734650438357996e-05	1.076576761769689378e-12	1.818353805089315989e+00	3.842881028958549538e-05	9.163951974895931423e-13
1.470000000000000749e-06	1.787672979497771042e+00	-7.768959809276713329e-05	1.085911258425442887e-12	1.816470407521947994e+00	4.399650515730493317e-05	9.224314022861599380e-13
1.480000000000000653e-06	1.785438113647551006e+00	-8.865245421971696467e-05	1.095346554016304581e-12	1.814585859468438978e+00	5.009171486571560583e-05	9.285309406316022184e-13
1.490000000000000557e-06	1.783202731636470029e+00	-1.008972240764584717e-04	1.104883384222596888e-12	1.812700197395539004e+00	5.687518864990728697e-05	9.346945879586124296e-13
1.500000000000000462e-06	1.780966947729033079e+00	-1.145526368500221232e-04	1.114522486793651777e-12	1.810813459010049975e+00	6.440631496852781458e-05	9.409231290708655630e-13
1.510000000000000366e-06	1.778730877396601961e+00	-1.297613465947142122e-04	1.124264601793783090e-12	1.808925683203969959e+00	7.274905104715324378e-05	9.472173582435005965e-13
1.520000000000000270e-06	1.776494637240596974e+00	-1.466815092338104884e-04	1.134110471854668513e-12	1.807036910002248087e+00	8.197262464809042140e-05	9.535780793400005504e-13
1.530000000000000174e-06	1.774258344917976071e+00	-1.654878065530784447e-04	1.144060842444147331e-12	1.805147180513015925e+00	9.215228771890200199e-05	9.600061059300653201e-13
1.540000000000000079e-06	1.772022119068858981e+00	-1.863722198463475582e-04	1.154116462151570272e-12	1.803256536880156968e+00	1.033700545666192976e-04	9.665022614084865777e-13
1.549999999999999983e-06	1.769786079246157939e+00	-2.095284365086454224e-04	1.164278082990312547e-12	1.801365022238081037e+00	1.157175332260192916e-04	9.730673791149782933e-13
1.559999999999999887e-06	1.767550345847108906e+00	-2.352275969546329857e-04	1.174546460715187643e-12	1.799472680668571911e+00	1.292873430033277644e-04	9.797023024552575180e-13
1.569999999999999791e-06	1.765315040046600004e+00	-2.636619705859319872e-04	1.184922355162095442e-12	1.797579557159608044e+00	1.441925351753189553e-04	9.864078850225761190e-13
1.579999999999999696e-06	1.763080283732169073e+00	-2.950938812288953720e-04	1.195406530598057347e-12	1.795685697566010042e+00	1.605484846766936312e-04	9.931849907210829735e-13
1.589999999999999600e-06	1.760846199440605941e+00	-3.297726658082371430e-04	1.205999756093650718e-12	1.793791148571848959e+00	1.784826372184545055e-04	1.000034493889639740e-12
1.599999999999999504e-06	1.758612910296057930e+00	-3.679405809328396794e-04	1.216702805910785125e-12	1.791895957654489946e+00	1.981325095322600597e-04	1.006957279426932733e-12
1.609999999999999408e-06	1.756380539949566000e+00	-4.098204287383642314e-04	1.227516459908086481e-12	1.790000173050197985e+00	2.196450444114868327e-04	1.013954242917589492e-12
1.619999999999999313e-06	1.754149212519928946e+00	-4.556003651245440047e-04	1.238441503963660855e-12	1.788103843721192909e+00	2.431753970055992550e-04	1.021026290759448072e-12
1.629999999999999217e-06	1.751919052535855892e+00	-5.054147683887774472e-04	1.249478730415113358e-12	1.786207019324089984e+00	2.688849251546010901e-04	1.028174340291802957e-12
1.639999999999999121e-06	1.749690184879334920e+00	-5.593223421948135101e-04	1.260628938516645205e-12	1.784309750179652987e+00	2.969381313857861028e-04	1.035399319924803084e-12
1.649999999999999025e-06	1.747462734730133027e+00	-6.172806587360441183e-04	1.271892934913259635e-12	1.782412087243748999e+00	3.274983240955573176e-04	1.042702169269900816e-12
1.659999999999998930e-06	1.745236827511414957e+00	-6.791186303583771891e-04	1.283271534131690983e-12	1.780514082079494909e+00	3.607222693891927630e-04	1.050083839271408997e-12
