# wavelength [m]	effective refractive index	transmission [dB/m]	effective mode area [m]	effective refractive index	transmission [dB/m]	effective mode area [m]	
5.500000000000095572e-07	1.990547873355430042e+00	6.171695785940993492e-14	4.800748681655702164e-13	1.993049219866158017e+00	4.059818634189148795e-13	4.777216081416978679e-13
5.600000000000094614e-07	1.987531655923171936e+00	-4.146608106179154819e-14	4.829282420162810733e-13	1.990154831877515074e+00	5.670245503332957695e-13	4.802013939342754946e-13
5.700000000000093657e-07	1.984588425190690897e+00	-1.972049669101516999e-13	4.858163403177047772e-13	1.987336564992844945e+00	7.704976457760080131e-13	4.827013113100197110e-13
5.800000000000092699e-07	1.981711684380706995e+00	-4.522695818135152384e-13	4.887398251131035147e-13	1.984587921427326096e+00	9.855426708173476904e-13	4.852218318527071732e-13
5.900000000000091742e-07	1.978895546085619017e+00	-7.758014468421887515e-13	4.916993530372021746e-13	1.981903011344334997e+00	1.257483016385304427e-12	4.877634201214506005e-13
6.000000000000090785e-07	1.976134665957965941e+00	-1.297502606247641611e-12	4.946955762432016430e-13	1.979276486565670012e+00	1.573782425414679587e-12	4.903265346536576912e-13
6.100000000000089827e-07	1.973424184747047949e+00	-1.877063413646379061e-12	4.977291432405228314e-13	1.976703482627296893e+00	1.893939144310242821e-12	4.929116288704453309e-13
6.200000000000088870e-07	1.970759677492281980e+00	-6.440260985380903856e-12	5.008006996531147085e-13	1.974179567991241058e+00	1.703966633399323942e-12	4.955191518964043566e-13
6.300000000000087912e-07	1.968137108872894947e+00	-7.622526459377147025e-12	5.039108889068325037e-13	1.971700699413224900e+00	1.898760781643007450e-12	4.981495493038937847e-13
6.400000000000086955e-07	1.965552793869133952e+00	-2.279477265444642227e-11	5.070603528535036761e-13	1.969263182621308950e+00	-5.285478844181782373e-12	5.008032637908739229e-13
6.500000000000085997e-07	1.963003363019538927e+00	-2.814437927518215549e-11	5.102497323383567499e-13	1.966863637590070102e+00	-6.626376186425967875e-12	5.034807357998716279e-13
6.600000000000085040e-07	1.960485731666119946e+00	-3.467239406006184331e-11	5.134796677160060183e-13	1.964498967802214890e+00	-8.240660365438932281e-12	5.061824040848057192e-13
6.700000000000084082e-07	1.957997072668983041e+00	-4.179009509075431009e-11	5.167507993210168436e-13	1.962166332979202954e+00	-9.947037817508548662e-12	5.089087062316236655e-13
6.800000000000083125e-07	1.955534792147139989e+00	2.750069069107957121e-11	5.200637678969254253e-13	1.959863124837609050e+00	1.912454231664268261e-11	5.116600791377858334e-13
6.900000000000082168e-07	1.953096507865309084e+00	3.167815727615995040e-11	5.234192149873533621e-13	1.957586945491105013e+00	2.136853233130171854e-11	5.144369594551334639e-13
7.000000000000081210e-07	1.950680029939825921e+00	-1.855655343892455011e-11	5.268177832941722117e-13	1.955335588171164929e+00	7.772479380418799063e-13	5.172397840000802884e-13
7.100000000000080253e-07	1.948283343581747928e+00	-1.929185313217463003e-11	5.302601170040776685e-13	1.953107019984630988e+00	7.589257161773705830e-13	5.200689901345803943e-13
7.200000000000079295e-07	1.945904593633551949e+00	-1.940757242816154333e-11	5.337468620872217574e-13	1.950899366464545981e+00	9.739707412187107651e-13	5.229250161210342476e-13
7.300000000000078338e-07	1.943542070688196954e+00	-1.900110840100753738e-11	5.372786665705453376e-13	1.948710897703050060e+00	1.185158456393828138e-12	5.258083014537003414e-13
7.400000000000077380e-07	1.941194198607147037e+00	-1.750399000917726559e-11	5.408561807875832138e-13	1.946540015882965102e+00	1.581497045147102992e-12	5.287192871691437952e-13
7.500000000000076423e-07	1.938859523277667085e+00	-1.454784416044725429e-11	5.444800576068388895e-13	1.944385244048395966e+00	2.512073050370586570e-12	5.316584161377841985e-13
7.600000000000075466e-07	1.936536702469936033e+00	-9.988986062303710989e-12	5.481509526405424556e-13	1.942245215974911954e+00	3.703017471563043819e-12	5.346261333384579801e-13
7.700000000000074508e-07	1.934224496672191096e+00	4.838030899695147038e-12	5.518695244352901760e-13	1.940118667017548981e+00	-1.719974469347848933e-11	5.376228861176925775e-13
7.800000000000073551e-07	1.931921760796976084e+00	2.416604631181865106e-12	5.556364346459571913e-13	1.938004425829713995e+00	-2.290181300323439842e-11	5.406491244351696579e-13
7.900000000000072593e-07	1.929627436664774986e+00	-2.256526271734750474e-13	5.594523481943038479e-13	1.935901406859303009e+00	-2.788063571307812956e-11	5.437053010967871940e-13
8.000000000000071636e-07	1.927340546182439107e+00	-3.172637364961473612e-12	5.633179334131941130e-13	1.933808603539453941e+00	-3.145491546788230474e-11	5.467918719764319177e-13
8.100000000000070678e-07	1.925060185143671054e+00	-4.089008826794402452e-10	5.672338621774946844e-13	1.931725082101211965e+00	-6.366489934189467922e-12	5.499092962276242637e-13
8.200000000000069721e-07	1.922785517587300985e+00	-5.246925032382719380e-10	5.712008100232027319e-13	1.929649975943861007e+00	-1.104637112938195189e-11	5.530580364859795083e-13
8.300000000000068763e-07	1.920515770656475052e+00	-6.600001830712183939e-10	5.752194562540860579e-13	1.927582480506077056e+00	-1.524457075503439323e-11	5.562385590633433839e-13
8.400000000000067806e-07	1.918250229908406990e+00	-8.160124557828535903e-10	5.792904840385826816e-13	1.925521848587524953e+00	-2.184153495375359836e-11	5.594513341344003693e-13
8.500000000000066849e-07	1.915988235029935094e+00	-9.848637843926761936e-10	5.834145804962665576e-13	1.923467386076211927e+00	-2.769066320216591922e-11	5.626968359164830860e-13
8.600000000000065891e-07	1.913729175919059999e+00	-1.170232596024341263e-09	5.875924367750103395e-13	1.921418448041753102e+00	-3.119792219804400428e-11	5.659755428431981341e-13
8.700000000000064934e-07	1.911472489097111982e+00	2.663144591199897384e-10	5.918247481197349742e-13	1.919374435159215908e+00	2.634243697029057616e-10	5.692879377324653297e-13
8.800000000000063976e-07	1.909217654419856913e+00	3.025085619197639535e-10	5.961122139314404286e-13	1.917334790431886926e+00	3.251779720018603817e-10	5.726345079494251310e-13
8.900000000000063019e-07	1.906964192059358965e+00	1.706273304364470188e-09	6.004555378216063448e-13	1.915298996184767955e+00	3.514626457556557935e-10	5.760157455648859324e-13
9.000000000000062061e-07	1.904711659731290085e+00	2.068053289541794552e-09	6.048554276555746952e-13	1.913266571303525954e+00	4.526196326602645904e-10	5.794321475095969850e-13
9.100000000000061104e-07	1.902459650145087000e+00	2.420454225754521847e-09	6.093125955923236190e-13	1.911237068696306940e+00	5.863062779874896164e-10	5.828842157245581805e-13
9.200000000000060147e-07	1.900207788656592012e+00	2.745718987047086141e-09	6.138277581158513128e-13	1.909210072958049897e+00	7.673703317342494290e-10	5.863724573082025639e-13
9.300000000000059189e-07	1.897955731105001043e+00	3.020156940571308480e-09	6.184016360613438977e-13	1.907185198219156996e+00	1.000070263985939313e-09	5.898973846603652402e-13
9.400000000000058232e-07	1.895703161817605009e+00	3.208478522724521688e-09	6.230349546355582723e-13	1.905162086162005997e+00	1.310906757834691395e-09	5.934595156235106313e-13
9.500000000000057274e-07	1.893449791767624957e+00	3.284582282000550029e-09	6.277284434319101818e-13	1.903140404190635904e+00	1.720868400564995357e-09	5.970593736214669819e-13
9.600000000000056317e-07	1.891195356871741895e+00	3.202514157348291663e-09	6.324828364405860769e-13	1.901119843740179949e+00	2.261639135373470012e-09	6.006974877959389282e-13
9.700000000000055359e-07	1.888939616415302059e+00	2.908805083756941857e-09	6.372988720540383319e-13	1.899100118714095009e+00	2.970062057373346337e-09	6.043743931409735222e-13
9.800000000000054402e-07	1.886682351594280105e+00	2.349524083318613821e-09	6.421772930681330177e-13	1.897080964038230899e+00	3.897527141456857337e-09	6.080906306356722328e-13
9.900000000000053444e-07	1.884423364164180992e+00	1.437494988656552873e-09	6.471188466793004105e-13	1.895062134321972014e+00	5.107296197870563266e-09	6.118467473752853405e-13
1.000000000000005249e-06	1.882162475186905048e+00	8.193408319492715981e-11	6.521242844779738903e-13	1.893043402617448967e+00	6.679918535209132781e-09	6.156432967008891589e-13
1.010000000000005153e-06	1.879899523867492928e+00	-1.837455592000934580e-09	6.571943624385711804e-13	1.891024559268791094e+00	8.706384235331030053e-09	6.194808383278085515e-13
1.020000000000005057e-06	1.877634366473388106e+00	-4.469507856853316220e-09	6.623298409064132410e-13	1.889005410844025956e+00	1.130885719372993426e-08	6.233599384729655871e-13
1.030000000000004961e-06	1.875366875329496974e+00	-7.999959897674013736e-09	6.675314845817709523e-13	1.886985779142960062e+00	1.463991522927167542e-08	6.272811699812632866e-13
1.040000000000004866e-06	1.873096937882992918e+00	-2.032829450070108986e-08	6.728000625008703537e-13	1.884965500274955019e+00	1.794630480143859140e-08	6.312451124512460908e-13
1.050000000000004770e-06	1.870824455832311051e+00	-2.684096735307191118e-08	6.781363480173154110e-13	1.882944423801085065e+00	2.322583372012293584e-08	6.352523523596118487e-13
1.060000000000004674e-06	1.868549344315209915e+00	-3.515990464916334525e-08	6.835411187762105517e-13	1.880922411935560978e+00	2.989248018077742583e-08	6.393034831860519710e-13
1.070000000000004578e-06	1.866271531151364016e+00	-4.572678333074021715e-08	6.890151566920680156e-13	1.878899338801881980e+00	3.827463914257486640e-08	6.433991055367309566e-13
1.080000000000004483e-06	1.863990956135217036e+00	-5.909146101443148356e-08	6.945592479226403920e-13	1.876875089739457936e+00	4.875790271473636092e-08	6.475398272678344812e-13
1.090000000000004387e-06	1.861707570375229048e+00	-7.591823785682254845e-08	7.001741828423370425e-13	1.874849560656856040e+00	6.182395533774205988e-08	6.517262636087700325e-13
1.100000000000004291e-06	1.859421335676022968e+00	-9.702310997844746832e-08	7.058607560149050268e-13	1.872822657428176107e+00	7.804049270036638731e-08	6.559590372851675166e-13
1.110000000000004196e-06	1.857132223960122897e+00	-1.234006115299359191e-07	7.116197661657789352e-13	1.870794295329258894e+00	9.810921341852496173e-08	6.602387786418053450e-13
1.120000000000004100e-06	1.854840216726413082e+00	-1.562582465030869482e-07	7.174520161543843735e-13	1.868764398510861069e+00	1.228576463519593821e-07	6.645661257654858325e-13
1.130000000000004004e-06	1.852545304542468019e+00	-1.970525063864810357e-07	7.233583129467929390e-13	1.866732899505971099e+00	1.532904711347128936e-07	6.689417246080022796e-13
1.140000000000003908e-06	1.850247486568364907e+00	-2.475444873071306818e-07	7.293394675890089918e-13	1.864699738768863968e+00	1.906017217214437382e-07	6.733662291092160163e-13
1.150000000000003813e-06	1.847946770109595960e+00	-3.098327664176571139e-07	7.353962951813055488e-13	1.862664864243539053e+00	2.362228436199424578e-07	6.778403013203175210e-13
1.160000000000003717e-06	1.845643170197003080e+00	-3.864121246949553343e-07	7.415296148539887598e-13	1.860628230959451956e+00	2.918463497710042231e-07	6.823646115273797599e-13
1.170000000000003621e-06	1.843336709191762068e+00	-4.802001123406593480e-07	7.477402497449040882e-13	1.858589800652610036e+00	3.594590058968852380e-07	6.869398383752116205e-13
1.180000000000003525e-06	1.841027416413635986e+00	-5.946125147926867469e-07	7.540290269791636201e-13	1.856549541410202009e+00	4.413911943494797595e-07	6.915666689916066596e-13
1.190000000000003430e-06	1.838715327790827025e+00	-7.335563687869219496e-07	7.603967776514052015e-13	1.854507427337158010e+00	5.403093392207577864e-07	6.962457991120268487e-13
1.200000000000003334e-06	1.836400485529896986e+00	-9.014539025437411887e-07	7.668443368111085689e-13	1.852463438243074911e+00	6.593026667429286975e-07	7.009779332047928048e-13
1.210000000000003238e-06	1.834082937804349944e+00	-1.101832834624823883e-06	7.733725434512896718e-13	1.850417559348128016e+00	7.986461551210430164e-07	7.057637845967896973e-13
1.220000000000003142e-06	1.831762738460561035e+00	-1.350990352144729988e-06	7.799822405009508330e-13	1.848369781006645951e+00	9.707197816600827695e-07	7.106040755998964329e-13
1.230000000000003047e-06	1.829439946739864098e+00	-1.664903591227219277e-06	7.866742748220666681e-13	1.846320098447175040e+00	1.169448014916177810e-06	7.154995376378711427e-13
1.240000000000002951e-06	1.827114627015649084e+00	-2.039694000447252428e-06	7.934494972110032781e-13	1.844268511527888954e+00	1.419084588517551629e-06	7.204509113741192847e-13
1.250000000000002855e-06	1.824786848544448947e+00	-2.493968346626279981e-06	8.003087624054150900e-13	1.842215024506320020e+00	1.718884237606113762e-06	7.254589468401553383e-13
1.260000000000002759e-06	1.822456685230082085e+00	-3.043024885548022991e-06	8.072529290966256058e-13	1.840159645822490031e+00	2.078172610147726171e-06	7.305244035648517948e-13
1.270000000000002664e-06	1.820124215399903100e+00	-3.704595500874291157e-06	8.142828599482907658e-13	1.838102387894499090e+00	2.507712886366903849e-06	7.356480507045479422e-13
1.280000000000002568e-06	1.817789521592390933e+00	-4.499054498649610479e-06	8.213994216216152350e-13	1.836043266925788897e+00	3.019954696273881196e-06	7.408306671741011444e-13
1.290000000000002472e-06	1.815452690355285004e+00	-5.449668212323544550e-06	8.286034848078208574e-13	1.833982302723321078e+00	3.629109444991239954e-06	7.460730417788317413e-13
1.300000000000002376e-06	1.813113812053557039e+00	-6.582828717367184319e-06	8.358959242681399098e-13	1.831919518525932933e+00	4.351342527948653985e-06	7.513759733474835474e-13
1.310000000000002281e-06	1.810772980686558009e+00	-7.928213950251191598e-06	8.432776188820835944e-13	1.829854940842223110e+00	5.204899694745061909e-06	7.567402708662451853e-13
1.320000000000002185e-06	1.808430293713733095e+00	-9.519020624945368498e-06	8.507494517043349404e-13	1.827788599297369920e+00	6.210271969967612248e-06	7.621667536138444726e-13
1.330000000000002089e-06	1.806085851888334037e+00	-1.139210887656377260e-05	8.583123100308265189e-13	1.825720526488300965e+00	7.390274111445106494e-06	7.676562512977659437e-13
1.340000000000001993e-06	1.803739759098577089e+00	-1.358815106704845392e-05	8.659670854746064967e-13	1.823650757846658976e+00	8.770173317093011832e-06	7.732096041916947042e-13
1.350000000000001898e-06	1.801392122215774050e+00	-1.615181811427519290e-05	8.737146740519368088e-13	1.821579331509108002e+00	1.037780815819552160e-05	7.788276632741660175e-13
1.360000000000001802e-06	1.799043050948980982e+00	-1.913189766659074232e-05	8.815559762791281187e-13	1.819506288194508992e+00	1.224363036404574613e-05	7.845112903684733331e-13
1.370000000000001706e-06	1.796692657705684093e+00	-2.258155013261080465e-05	8.894918972808347447e-13	1.817431671087484046e+00	1.440077965179558017e-05	7.902613582839889439e-13
1.380000000000001610e-06	1.794341057458209043e+00	-2.655844081761551582e-05	8.975233469100356326e-13	1.815355525728062913e+00	1.688514335846413622e-05	7.960787509587599478e-13
1.390000000000001515e-06	1.791988367615390043e+00	-3.112517412714554781e-05	9.056512398805710655e-13	1.813277899906929003e+00	1.973550546482755256e-05	8.019643636036273034e-13
1.400000000000001419e-06	1.789634707899214083e+00	-3.634965239559090594e-05	9.138764959124574566e-13	1.811198843566004912e+00	2.299345584803260154e-05	8.079191028477567073e-13
1.410000000000001323e-06	1.787280200226093019e+00	-4.230565268109151458e-05	9.222000398907848873e-13	1.809118408703985104e+00	2.670375229744878780e-05	8.139438868857674898e-13
1.420000000000001227e-06	1.784924968592453087e+00	-4.907368793032642869e-05	9.306228020384449807e-13	1.807036649286541063e+00	3.091432826352125341e-05	8.200396456263897532e-13
1.430000000000001132e-06	1.782569138964380961e+00	-5.674182436126317568e-05	9.391457181034216770e-13	1.804953621160910959e+00	3.567660697544491031e-05	8.262073208427999053e-13
1.440000000000001036e-06	1.780212839171047889e+00	-6.540693617655595816e-05	9.477697295610209389e-13	1.802869381974586904e+00	4.104577228410707083e-05	8.324478663246309493e-13
1.450000000000000940e-06	1.777856198801665011e+00	-7.517597132750330417e-05	9.564957838332119495e-13	1.800783991097872017e+00	4.707784311716914881e-05	8.387622480316421845e-13
1.460000000000000844e-06	1.775499349105750913e+00	-8.615558243870967956e-05	9.653248345158794346e-13	1.798697509550031048e+00	5.383864185602149350e-05	8.451514442496772847e-13
1.470000000000000749e-06	1.773142422896498038e+00	-9.848041686477646841e-05	9.742578416383461278e-13	1.796609999928880042e+00	6.139664008785261444e-05	8.516164457475269039e-13
1.480000000000000653e-06	1.770785554457019906e+00	-1.122938221085021277e-04	9.832957719241467093e-13	1.794521526343531015e+00	6.982667733553731340e-05	8.581582559366580404e-13
1.490000000000000557e-06	1.768428879449325919e+00	-1.277549442358093571e-04	9.924395990767694318e-13	1.792432154350146911e+00	7.921051050869161718e-05	8.647778910324241865e-13
1.500000000000000462e-06	1.766072534825817941e+00	-1.450396520605576399e-04	1.001690304081627532e-12	1.790341950890516065e+00	8.963781139544702925e-05	8.714763802174785350e-13
1.510000000000000366e-06	1.763716658743172960e+00	-1.643413453856508563e-04	1.011048875526103202e-12	1.788250984233261009e+00	1.012072547366092430e-04	8.782547658071885932e-13
1.520000000000000270e-06	1.761361390478441979e+00	-1.858710066565210067e-04	1.020516309938111247e-12	1.786159323917523079e+00	1.140275428992539248e-04	8.851141034172916180e-13
1.530000000000000174e-06	1.759006870347241014e+00	-2.098563245492464911e-04	1.030093612143447363e-12	1.784067040698978923e+00	1.282182825543126952e-04	8.920554621337094841e-13
1.540000000000000079e-06	1.756653239623898966e+00	-2.365396982906942764e-04	1.039781795642240945e-12	1.781974206498043944e+00	1.439108315519315568e-04	8.990799246847029228e-13
1.549999999999999983e-06	1.754300640463430039e+00	-2.661797834189475126e-04	1.049581883004976288e-12	1.779880894350124976e+00	1.612493752884781916e-04	9.061885876153282750e-13
1.559999999999999887e-06	1.751949215825250983e+00	-2.990188605964708927e-04	1.059494906287805311e-12	1.777787178357788989e+00	1.803871673332483922e-04	9.133825614642242245e-13
1.569999999999999791e-06	1.749599109398493946e+00	-3.353258298749477650e-04	1.069521907468461236e-12	1.775693133644763000e+00	2.014932660099773005e-04	9.206629709431643145e-13
1.579999999999999696e-06	1.747250465528862096e+00	-3.753297475501530568e-04	1.079663938901425425e-12	1.773598836311591986e+00	2.247434361305521502e-04	9.280309551187307311e-13
1.589999999999999600e-06	1.744903429146908991e+00	-4.192283343464655036e-04	1.089922063793975882e-12	1.771504363392907955e+00	2.503211102829460961e-04	9.354876675969148230e-13
1.599999999999999504e-06	1.742558145697667982e+00	-4.671604148806597135e-04	1.100297356702297911e-12	1.769409792816182048e+00	2.784125622535236501e-04	9.430342767102031013e-13
1.609999999999999408e-06	1.740214761071579019e+00	-5.191800603511923049e-04	1.110790904048093953e-12	1.767315203361875087e+00	3.092010528157635861e-04	9.506719657074818331e-13
1.619999999999999313e-06	1.737873421536600071e+00	-5.752272996765774851e-04	1.121403804655697645e-12	1.765220674624889963e+00	3.428592173008480968e-04	9.584019329466653133e-13
1.629999999999999217e-06	1.735534273671464955e+00	-6.350966641352955109e-04	1.132137170309578001e-12	1.763126286977241941e+00	3.795393502410516822e-04	9.662253920902012945e-13
1.639999999999999121e-06	1.733197464300050061e+00	-6.984043917378352211e-04	1.142992126332258967e-12	1.761032121531898031e+00	4.193616078992655244e-04	9.741435723035040630e-13
1.649999999999999025e-06	1.730863140428406943e+00	-7.908021654683713812e-04	1.153969812256392757e-12	1.758938260107161033e+00	4.572278811751858156e-04	9.821577184363584191e-13
1.659999999999998930e-06	1.728531449174770973e+00	-8.757486977892800029e-04	1.165071382161799606e-12	1.756844785194394021e+00	5.051111460441647539e-04	9.902690913007057481e-13
