# wavelength [m]	effective refractive index	transmission [dB/m]	effective mode area [m]	effective refractive index	transmission [dB/m]	effective mode area [m]	
5.500000000000095572e-07	2.062653262188494985e+00	2.218394344446626162e-07	9.100322481342264986e-19	2.065138157794359941e+00	-2.988600850491896464e-07	8.827730771256514257e-19
5.600000000000094614e-07	2.059088695516277046e+00	-9.129768481606455832e-07	9.175755994869951286e-19	2.061507691359325989e+00	1.253823879008433989e-06	8.909263690297007981e-19
5.700000000000093657e-07	2.055621025701305005e+00	-1.270169913563658445e-06	9.249589237561621736e-19	2.057969394644242112e+00	1.746386698437890354e-06	8.989878902833743638e-19
5.800000000000092699e-07	2.052243097647073800e+00	-1.780496993827146877e-06	9.321857113986440578e-19	2.054516124462649085e+00	2.451919564588369846e-06	9.069618517080653680e-19
5.900000000000091742e-07	2.048948409716127017e+00	-2.521595408133975618e-06	9.392592796149050973e-19	2.051141395565169834e+00	3.480968045635326191e-06	9.148523517552539147e-19
6.000000000000090785e-07	2.045731042001211808e+00	-3.609038461498917393e-06	9.461827966452160619e-19	2.047839310154575987e+00	5.000081711130284715e-06	9.226634199565014761e-19
6.100000000000089827e-07	2.042585593315262127e+00	-5.208569655308138859e-06	9.529593094609015963e-19	2.044604496538612981e+00	7.251119656312360405e-06	9.303990708118759244e-19
6.200000000000088870e-07	2.039507125526561993e+00	-7.547647341124488486e-06	9.595917781029500615e-19	2.041432055750965979e+00	1.057052062337284846e-05	9.380633743971810462e-19
6.300000000000087912e-07	2.036491114009754799e+00	-1.092267070975508921e-05	9.660831221752980239e-19	2.038317515230354982e+00	1.540357299900258704e-05	9.456605537162350760e-19
6.400000000000086955e-07	2.033533403052556032e+00	-1.569602757468445219e-05	9.724362891908920600e-19	2.035256788911348202e+00	2.230548760110374413e-05	9.531951253385547301e-19
6.500000000000085997e-07	2.030630165027135003e+00	-2.227422528556162291e-05	9.786543624649562762e-19	2.032246143387801851e+00	3.191684954887220643e-05	9.606721115119758842e-19
6.600000000000085040e-07	2.027777861945819993e+00	-3.105477771524697036e-05	9.847407419904361802e-19	2.029282170228734916e+00	4.489581594748334243e-05	9.680973734290530385e-19
6.700000000000084082e-07	2.024973207548280918e+00	-4.232226931469653970e-05	9.906994638039685356e-19	2.026361765190678010e+00	6.178135176625648749e-05	9.754781563089793451e-19
6.800000000000083125e-07	2.022213127039604874e+00	-5.598873809390701793e-05	9.965357911729986695e-19	2.023482116259113006e+00	8.268726950204152238e-05	9.828240178176602940e-19
6.900000000000082168e-07	2.019494709401485011e+00	-2.267235047404285615e-05	1.002257359905275099e-18	2.020640704783490005e+00	3.243737599899623530e-05	9.901484758297277306e-19
7.000000000000081210e-07	2.016815142374856151e+00	-2.614717485930470793e-05	1.007876496947546408e-18	2.017835328910035031e+00	3.786318200824643262e-05	9.974720540067877581e-19
7.100000000000080253e-07	2.014171609190829049e+00	-2.918786846900792777e-05	1.013415107782029400e-18	2.015064169629214863e+00	4.300340067812187441e-05	1.004828098242000048e-18
7.200000000000079295e-07	2.011561099683417897e+00	-3.111406313540917342e-05	1.018915208522537445e-18	2.012325946287766953e+00	4.708893400677605562e-05	1.012273950827177633e-18
7.300000000000078338e-07	2.008980023772676038e+00	-3.078379161787265941e-05	1.024460700345931784e-18	2.009620273122290968e+00	4.884244949492434534e-05	1.019910366799608505e-18
7.400000000000077380e-07	2.006423370330252087e+00	-2.627385275459261777e-05	1.030209746351132908e-18	2.006948473411405143e+00	4.614874374615957514e-05	1.027896006832900889e-18
7.500000000000076423e-07	2.003883010109563045e+00	-1.480699999197061795e-05	1.036350541730097493e-18	2.004315252221708921e+00	3.597233437826730356e-05	1.036316328591430355e-18
7.600000000000075466e-07	2.001346003929089790e+00	4.213363093147196565e-06	1.042641458066027345e-18	2.001730366268084094e+00	1.738538027244949924e-05	1.044410243467947253e-18
7.700000000000074508e-07	1.998799698798285895e+00	2.084604091901185154e-05	1.048273309675820055e-18	1.999203507921329059e+00	-9.220890509474656589e-08	1.050203815510882715e-18
7.800000000000073551e-07	1.996244314278178056e+00	2.135325045418565715e-05	1.053632321578239263e-18	1.996731700865610915e+00	-3.217624592334371937e-06	1.053841109132849326e-18
7.900000000000072593e-07	1.993689512226209049e+00	3.127854025349585462e-06	1.059424341103682634e-18	1.994302714038965973e+00	1.002757295589902105e-05	1.057102906091591029e-18
8.000000000000071636e-07	1.991142818846570961e+00	-3.256477056774830360e-05	1.065610760856111460e-18	1.991906624766087042e+00	3.771197517538594991e-05	1.060609303912937183e-18
8.100000000000070678e-07	1.988607766203400073e+00	-8.629123647441145446e-05	1.072005101159888084e-18	1.989537663769544995e+00	7.966853244081222116e-05	1.064332171147789707e-18
8.200000000000069721e-07	1.986085638830002997e+00	1.562599736714624437e-03	1.078493278069847600e-18	1.987192456285044040e+00	-1.091832452962348448e-03	1.068165950974235945e-18
8.300000000000068763e-07	1.983576680866494968e+00	1.927898874702641419e-03	1.085018599097913534e-18	1.984868803751093980e+00	-1.351646135514896581e-03	1.072036395043817681e-18
8.400000000000067806e-07	1.981080664016739101e+00	2.353624758508916608e-03	1.091553635574216038e-18	1.982565105615184953e+00	-1.651586990818651544e-03	1.075899275808258369e-18
8.500000000000066849e-07	1.978597144920100970e+00	2.845904778599186655e-03	1.098085089127868150e-18	1.980280092643230017e+00	-1.996196880503182079e-03	1.079729007973490389e-18
8.600000000000065891e-07	1.976125585915408100e+00	3.407364415051236835e-03	1.104606647712265847e-18	1.978012697612612891e+00	-2.387653533399677289e-03	1.083510866682014823e-18
8.700000000000064934e-07	1.973665414416021058e+00	4.035542707841804737e-03	1.111115609518974594e-18	1.975761988116754075e+00	-2.824899301277426257e-03	1.087236511634253496e-18
8.800000000000063976e-07	1.971216053240878008e+00	4.720670676312123219e-03	1.117611230190929433e-18	1.973527129064932106e+00	-3.302355141830618304e-03	1.090901471078496597e-18
8.900000000000063019e-07	1.968776936462274918e+00	5.442790970355723158e-03	1.124093878881804977e-18	1.971307360256262964e+00	-3.808232001947320280e-03	1.094503704374855907e-18
9.000000000000062061e-07	1.966347517681767965e+00	6.168174650588892881e-03	1.130564589376890327e-18	1.969101982062239964e+00	-4.322431733358526526e-03	1.098042757502869532e-18
9.100000000000061104e-07	1.963927274188874916e+00	6.844984457798144149e-03	1.137024812427769652e-18	1.966910345714659059e+00	-4.814015335506689752e-03	1.101519251428791299e-18
9.200000000000060147e-07	1.961515708811853997e+00	7.398143262170869469e-03	1.143476274729898984e-18	1.964731846345944000e+00	-5.238227719751499534e-03	1.104934562558525899e-18
9.300000000000059189e-07	1.959112350447556938e+00	7.729417834015510011e-03	1.149920896473849788e-18	1.962565917755626055e+00	-5.533606555877166287e-03	1.108290617285946704e-18
9.400000000000058232e-07	1.956716753829865096e+00	7.692368853823732845e-03	1.156360742334805143e-18	1.960412028308506915e+00	-5.618514992881172912e-03	1.111589756075915621e-18
9.500000000000057274e-07	1.954328498857450969e+00	7.106665323277878282e-03	1.162797991585724066e-18	1.958269677610595894e+00	-5.384097608606436963e-03	1.114834641353625131e-18
9.600000000000056317e-07	1.951947189284340078e+00	7.652131670903346283e-03	1.169234866830230046e-18	1.956138393986208923e+00	-5.678972987166410261e-03	1.118028231461226598e-18
9.700000000000055359e-07	1.949572453147579099e+00	8.507101192521408090e-03	1.175673821232829858e-18	1.954017731188812945e+00	-6.323714215342351834e-03	1.121173592240214588e-18
9.800000000000054402e-07	1.947203939607802026e+00	9.439223006967898538e-03	1.182117254249814704e-18	1.951907267655895062e+00	-7.028888339066912197e-03	1.124274063076568641e-18
9.900000000000053444e-07	1.944841319133034929e+00	1.045344399308438532e-02	1.188567681754942172e-18	1.949806603893849966e+00	-7.799640779555841799e-03	1.127333106324423508e-18
1.000000000000005249e-06	1.942484282103599913e+00	1.155385499975460604e-02	1.195027693148824807e-18	1.947715361072364093e+00	-8.641311381235351058e-03	1.130354317061238659e-18
1.010000000000005153e-06	1.940132537755133946e+00	1.274297513316838271e-02	1.201499950571333191e-18	1.945633179593124984e+00	-9.559289542229142123e-03	1.133341407350095256e-18
1.020000000000005057e-06	1.937785813164836002e+00	1.402077135194955762e-02	1.207987188843456161e-18	1.943559717799455022e+00	-1.055881399472716198e-02	1.136298193346911355e-18
1.030000000000004961e-06	1.935443852286159894e+00	1.538335738917787944e-02	1.214492215872216605e-18	1.941494650806887989e+00	-1.164470472416004668e-02	1.139228584459012277e-18
1.040000000000004866e-06	1.933106415034220982e+00	1.682130897755922463e-02	1.221017913345422571e-18	1.939437669438913048e+00	-1.282103311510103191e-02	1.142136574006943615e-18
1.050000000000004770e-06	1.930773276422377949e+00	1.831751171914133489e-02	1.227567237602714341e-18	1.937388479255127027e+00	-1.409071810506333164e-02	1.145026231008279792e-18
1.060000000000004674e-06	1.928444225749156082e+00	1.984448600796322529e-02	1.234143220609617561e-18	1.935346799661225026e+00	-1.545505867888196348e-02	1.147901692817080155e-18
1.070000000000004578e-06	1.926119065834035027e+00	2.136105509199678898e-02	1.240748970989931056e-18	1.933312363092076103e+00	-1.691320650623738195e-02	1.150767158432619403e-18
1.080000000000004483e-06	1.923797612300123028e+00	2.280836180751132092e-02	1.247387675075892128e-18	1.931284914260356977e+00	-1.846159268500547485e-02	1.153626882347025173e-18
1.090000000000004387e-06	1.921479692901417957e+00	2.410494553117348976e-02	1.254062597986262263e-18	1.929264209464264024e+00	-2.009333647917749613e-02	1.156485168841602234e-18
1.100000000000004291e-06	1.919165146892404028e+00	2.514101475932501578e-02	1.260777084692472062e-18	1.927250015948744011e+00	-2.179766225978986907e-02	1.159346366669286945e-18
1.110000000000004196e-06	1.916853824437450893e+00	2.577159176457359882e-02	1.267534561093158418e-18	1.925242111315218940e+00	-2.355937664149340000e-02	1.162214864081300835e-18
1.120000000000004100e-06	1.914545586057798010e+00	2.580853287868653534e-02	1.274338535092888470e-18	1.923240282975543947e+00	-2.535845496712194752e-02	1.165095084170080778e-18
1.130000000000004004e-06	1.912240302113680013e+00	2.501121996130557107e-02	1.281192597690988916e-18	1.921244327646191907e+00	-2.716982552194450312e-02	1.167991480510424792e-18
1.140000000000003908e-06	1.909937852319480989e+00	2.307582087321262410e-02	1.288100424089224389e-18	1.919254050879277029e+00	-2.896341935342089391e-02	1.170908533088398538e-18
1.150000000000003813e-06	1.907638125289752073e+00	1.962294926627277530e-02	1.295065774827761407e-18	1.917269266627229962e+00	-3.070463049875389247e-02	1.173850744511666977e-18
1.160000000000003717e-06	1.905341018114093954e+00	1.418354229771980925e-02	1.302092496960744065e-18	1.915289796838324010e+00	-3.235527297497967775e-02	1.176822636498540265e-18
1.170000000000003621e-06	1.903046435959032889e+00	6.182792974463933479e-03	1.309184525282730078e-18	1.913315471080494934e+00	-3.387523586259327812e-02	1.179828746644674797e-18
1.180000000000003525e-06	1.900754291695087028e+00	-5.078112612970368984e-03	1.316345883618925945e-18	1.911346126191113992e+00	-3.522497702485875848e-02	1.182873625467860818e-18
1.190000000000003430e-06	1.898464505547392100e+00	-2.044265444960804631e-02	1.323580686191705313e-18	1.909381605950652094e+00	-3.636907844425695674e-02	1.185961833731063003e-18
1.200000000000003334e-06	1.896177004768279994e+00	-4.092234895901991631e-02	1.330893139077002592e-18	1.907421760778257980e+00	-3.728109120381499497e-02	1.189097940044868399e-18
1.210000000000003238e-06	1.893891723330417109e+00	-6.772311769596395248e-02	1.338287541763868241e-18	1.905466447447559997e+00	-3.794992333895184922e-02	1.192286518749058247e-18
1.220000000000003142e-06	1.891608601639062970e+00	-1.022750406711974425e-01	1.345768288832635720e-18	1.903515528820981073e+00	-3.838805937734819651e-02	1.195532148077092548e-18
1.230000000000003047e-06	1.889327586262369962e+00	-1.462659209008612404e-01	1.353339871757473664e-18	1.901568873601553022e+00	-3.864193583441698915e-02	1.198839408580870967e-18
1.240000000000002951e-06	1.887048629678204970e+00	-2.016791519787362041e-01	1.361006880867626409e-18	1.899626356099870073e+00	-3.880479890835900059e-02	1.202212881866959567e-18
1.250000000000002855e-06	1.884771690036814107e+00	-2.708364818026141041e-01	1.368774007455654771e-18	1.897687856016283980e+00	-3.903244417339259142e-02	1.205657149572200220e-18
1.260000000000002759e-06	1.882496730938044038e+00	-3.564463448880569318e-01	1.376646046066791095e-18	1.895753258236281047e+00	-3.956221675250336939e-02	1.209176792626686685e-18
1.270000000000002664e-06	1.880223721222276989e+00	-4.616585488836032480e-01	1.384627896976701086e-18	1.893822452638354026e+00	-4.073571948352645161e-02	1.212776390779794216e-18
1.280000000000002568e-06	1.877952634805142962e+00	-5.884101188337623745e-01	1.392724574939679310e-18	1.891895333914259014e+00	-4.278429291111073007e-02	1.216460522026580034e-18
1.290000000000002472e-06	1.875683450382531925e+00	-7.440424974132237024e-01	1.400941190503098147e-18	1.889971801396475026e+00	-4.678775496060853800e-02	1.220233763988999619e-18
1.300000000000002376e-06	1.873416151408604957e+00	-9.320194062846383076e-01	1.409282982462925760e-18	1.888051758901170052e+00	-5.337563535897373035e-02	1.224100692311836252e-18
1.310000000000002281e-06	1.871150725841288054e+00	-1.157980628934562439e+00	1.417755303326329631e-18	1.886135114575826055e+00	-6.362456450778586348e-02	1.228065882412013939e-18
1.320000000000002185e-06	1.868887166011238055e+00	-1.428421338693821596e+00	1.426363627185762368e-18	1.884221780757135090e+00	-7.890132561416463020e-02	1.232133909944209462e-18
1.330000000000002089e-06	1.866625468478902095e+00	-1.750811732928949427e+00	1.435113553633857470e-18	1.882311673836537969e+00	-1.009180257792670898e-01	1.236309351801911285e-18
1.340000000000001993e-06	1.864365641488131109e+00	-1.373561154687980901e+00	1.444012093673544818e-18	1.880404712859663929e+00	-4.960011675282306465e-01	1.240596543833577878e-18
1.350000000000001898e-06	1.862107677594200927e+00	-1.723932611503792289e+00	1.453063074595554398e-18	1.878500823529795083e+00	-5.940422277043697630e-01	1.245000379053347531e-18
1.360000000000001802e-06	1.859851590515525066e+00	-2.151321775368848943e+00	1.462273386962928881e-18	1.876599933092746975e+00	-7.116458109299296231e-01	1.249525329609112140e-18
1.370000000000001706e-06	1.857597392596995078e+00	-2.670665133007553926e+00	1.471649201541253893e-18	1.874701972904621927e+00	-8.524002762817073364e-01	1.254175982103717390e-18
1.380000000000001610e-06	1.855345099833340061e+00	-3.299423542670449017e+00	1.481196841734411867e-18	1.872806877798735892e+00	-1.020471455263154192e+00	1.258956931283327647e-18
1.390000000000001515e-06	1.853094731771901982e+00	-4.057941787192145711e+00	1.490922789595738730e-18	1.870914585988024958e+00	-1.220681145942124957e+00	1.263872782139634921e-18
1.400000000000001419e-06	1.850846311421374013e+00	-4.969848429804483381e+00	1.500833692175231880e-18	1.869025038972363051e+00	-1.458594073630102628e+00	1.268928152179679779e-18
1.410000000000001323e-06	1.848599865166064893e+00	-6.062498908031830780e+00	1.510936368204075724e-18	1.867138181450407997e+00	-1.740614000730335009e+00	1.274127673855114414e-18
1.420000000000001227e-06	1.846355422685314940e+00	-7.367464806447418191e+00	1.521237815114803859e-18	1.865253961235729951e+00	-2.074089581319755293e+00	1.279475997141740636e-18
1.430000000000001132e-06	1.844113016877712008e+00	-8.921072224693723740e+00	1.531745216392684407e-18	1.863372329176977038e+00	-2.467430665492536868e+00	1.284977792260568661e-18
1.440000000000001036e-06	1.841872683789699039e+00	-1.076499207630234700e+01	1.542465949251206044e-18	1.861493239081783102e+00	-2.930235676587196192e+00	1.290637752531299371e-18
1.450000000000000940e-06	1.839634462548249028e+00	-1.294688508019620343e+01	1.553407592620710420e-18	1.859616647644241949e+00	-3.473430765926671882e+00	1.296460597348928976e-18
1.460000000000000844e-06	1.837398395297217935e+00	-1.552110400927286449e+01	1.564577935435602456e-18	1.857742514375704035e+00	-4.109421388941040476e+00	1.302451075274067695e-18
1.470000000000000749e-06	1.835164527137044921e+00	-1.854945561891297956e+01	1.575984985201638424e-18	1.855870801538721970e+00	-4.852256968388363845e+00	1.308613967227375946e-18
1.480000000000000653e-06	1.832932906067400003e+00	-2.210202439034150501e+01	1.587636976819848439e-18	1.854001474083935008e+00	-5.717809293270970095e+00	1.314954089777652929e-18
1.490000000000000557e-06	1.830703582932440066e+00	-2.625805994488491990e+01	1.599542381639665399e-18	1.852134499589733974e+00	-6.723965289010651603e+00	1.321476298513906149e-18
1.500000000000000462e-06	1.828476611368297977e+00	-3.110692960357564019e+01	1.611709916707564721e-18	1.850269848204532108e+00	-7.890834741724514600e+00	1.328185491490006734e-18
1.510000000000000366e-06	1.826252047752408902e+00	-3.674913720935025907e+01	1.624148554173087782e-18	1.848407492591493062e+00	-9.240973582717820989e+00	1.335086612731045778e-18
1.520000000000000270e-06	1.824029951154300999e+00	-4.329740878297597817e+01	1.636867530807516672e-18	1.846547407875535951e+00	-1.079962324359817138e+01	1.342184655789613862e-18
1.530000000000000174e-06	1.821810383287445045e+00	-5.087784510103189461e+01	1.649876357584864332e-18	1.844689571592510013e+00	-1.259496658803016267e+01	1.349484667339563796e-18
1.540000000000000079e-06	1.819593408461765982e+00	-5.963114069091749059e+01	1.663184829267892718e-18	1.842833963640361006e+00	-1.465840086172715040e+01	1.356991750794423534e-18
1.549999999999999983e-06	1.817379093536396928e+00	-6.971386804371907431e+01	1.676803033932714409e-18	1.840980566232180093e+00	-1.702482805187066361e+01	1.364711069937218874e-18
1.559999999999999887e-06	1.815167507872246899e+00	-8.129982512696550145e+01	1.690741362384377332e-18	1.839129363850974919e+00	-1.973296287959094286e+01	1.372647852542443559e-18
1.569999999999999791e-06	1.812958723283967011e+00	-9.458144379171044136e+01	1.705010517313096251e-18	1.837280343206056932e+00	-2.282565896501954938e+01	1.380807393991163256e-18
1.579999999999999696e-06	1.810752813990853971e+00	-1.097712551478244478e+02	1.719621522237352574e-18	1.835433493190895105e+00	-2.635025279928269271e+01	1.389195060832845991e-18
1.589999999999999600e-06	1.808549856566262992e+00	-1.271034080807824864e+02	1.734585729998163103e-18	1.833588804842303022e+00	-3.035892616046251291e+01	1.397816294311015918e-18
1.599999999999999504e-06	1.806349929885066929e+00	-1.468352354208923032e+02	1.749914830806059664e-18	1.831746271300856987e+00	-3.490908660663578900e+01	1.406676613809988651e-18
1.609999999999999408e-06	1.804153115068745095e+00	-1.692488616336322877e+02	1.765620859693034366e-18	1.829905887772409034e+00	-4.006376597070317302e+01	1.415781620214315349e-18
1.619999999999999313e-06	1.801959495427595925e+00	-1.946528450025536472e+02	1.781716203267570752e-18	1.828067651490546952e+00	-4.589203672439752779e+01	1.425136999157759512e-18
1.629999999999999217e-06	1.799769156399684045e+00	-2.233838461579406385e+02	1.798213605653555581e-18	1.826231561679892090e+00	-5.246944572808068585e+01	1.434748524140651484e-18
1.639999999999999121e-06	1.797582185486052975e+00	-2.558083139956065111e+02	1.815126173489122253e-18	1.824397619520133906e+00	-5.987846499248830412e+01	1.444622059492705378e-18
1.649999999999999025e-06	1.795398672181788946e+00	-2.923241788432350177e+02	1.832467379856288605e-18	1.822565828110618957e+00	-6.820895874230745903e+01	1.454763563157488723e-18
1.659999999999998930e-06	1.793218707902533016e+00	-3.333625420602663780e+02	1.850251067007651936e-18	1.820736192435423950e+00	-7.755866616072603392e+01	1.465179089272994287e-18
