# wavelength [m]	effective refractive index	transmission [dB/m]	effective mode area [m]	effective refractive index	transmission [dB/m]	effective mode area [m]	
5.500000000000095572e-07	2.003697915839438792e+00	3.733905153565188401e-08	6.810674012341003052e-19	2.005602015578569208e+00	-2.274502739942125645e-08	6.331919670305780390e-19
5.600000000000094614e-07	2.000792901024689208e+00	5.269082930897635090e-08	6.742445654239088535e-19	2.002827446227063213e+00	-3.184796437014442814e-08	6.244523439051920505e-19
5.700000000000093657e-07	1.997969264153462987e+00	7.310799829653327914e-08	6.673466089345332257e-19	2.000137938663721915e+00	-4.388178041117690243e-08	6.156977470865704370e-19
5.800000000000092699e-07	1.995220212465194987e+00	9.980396104272852642e-08	6.603944798631941561e-19	1.997526680285053091e+00	-5.953124786536031973e-08	6.069515474031401275e-19
5.900000000000091742e-07	1.992539574236825040e+00	1.341322888883163922e-07	6.534077612689535242e-19	1.994987479809700925e+00	-7.955694873424831227e-08	5.982350806267988521e-19
6.000000000000090785e-07	1.989921731846028941e+00	1.775609049703155025e-07	6.464046635504351255e-19	1.992514700363956948e+00	-1.047853599534503421e-07	5.895676906505816178e-19
6.100000000000089827e-07	1.987361563245640061e+00	2.316360289512942520e-07	6.394020319810245194e-19	1.990103200961732099e+00	-1.360789467146707082e-07	5.809667920605715314e-19
6.200000000000088870e-07	1.984854390646477951e+00	2.979616609147208215e-07	6.324153675672719575e-19	1.987748285177517893e+00	-1.743251479292129555e-07	5.724479481506234445e-19
6.300000000000087912e-07	1.982395935397746944e+00	3.782189749069672435e-07	6.254588593237591851e-19	1.985445656004563908e+00	-2.204479520297014760e-07	5.640249608202126736e-19
6.400000000000086955e-07	1.979982278212156999e+00	4.741034225571059201e-07	6.185454260529552366e-19	1.983191376047400922e+00	-2.749870041839638438e-07	5.557099690233521034e-19
6.500000000000085997e-07	1.977609824014106010e+00	5.712413113742272719e-07	6.116867657857996681e-19	1.980981832329230974e+00	-3.191486169027783077e-07	5.475135528317304706e-19
6.600000000000085040e-07	1.975275270795104010e+00	7.626582049989780828e-07	6.048934110736974722e-19	1.978813705102115961e+00	-4.202139935957228323e-07	5.394448405834974113e-19
6.700000000000084082e-07	1.972975581972238102e+00	9.500931939423105962e-07	5.981747890116662502e-19	1.976683940146898077e+00	-5.167745303249454588e-07	5.315116168037415788e-19
6.800000000000083125e-07	1.970707961759426086e+00	1.205852509551198389e-06	5.915392834098704662e-19	1.974589724100662025e+00	-6.519405705502904684e-07	5.237204294669726768e-19
6.900000000000082168e-07	1.968469833228412069e+00	1.499955189991166625e-06	5.849942993960801742e-19	1.972528462454631981e+00	-8.008349824397000687e-07	5.160766946661170514e-19
7.000000000000081210e-07	1.966258818686996923e+00	1.863306219159818411e-06	5.785463282377998695e-19	1.970497759877509081e+00	-9.820833023953220064e-07	5.085847979449125516e-19
7.100000000000080253e-07	1.964072722109349023e+00	2.312645662050513167e-06	5.722010119002978411e-19	1.968495402591158960e+00	-1.203076611358080570e-06	5.012481910950199409e-19
7.200000000000079295e-07	1.961909513370895031e+00	2.868150060811624875e-06	5.659632065621708605e-19	1.966519342546386051e+00	-1.472635262501804237e-06	4.940694844683256339e-19
7.300000000000078338e-07	1.959767314076442002e+00	3.553551080144127474e-06	5.598370444242407531e-19	1.964567683203352955e+00	-1.800983330230520950e-06	4.870505332402829881e-19
7.400000000000077380e-07	1.957644384797474046e+00	4.396009743556450892e-06	5.538259933762875307e-19	1.962638666714590974e+00	-2.199559997543067683e-06	4.801925186400736362e-19
7.500000000000076423e-07	1.955539113558830921e+00	5.425566439309764293e-06	5.479329141454340242e-19	1.960730662364037036e+00	-2.680607708639463941e-06	4.734960232465247165e-19
7.600000000000075466e-07	1.953450005435070080e+00	6.674220741911216173e-06	5.421601146702686835e-19	1.958842156117756028e+00	-3.256496696682818196e-06	4.669611006588531233e-19
7.700000000000074508e-07	1.951375673134593036e+00	8.174265581980390030e-06	5.365094015288418529e-19	1.956971741165322021e+00	-3.938709986458899255e-06	4.605873396079592307e-19
7.800000000000073551e-07	1.949314828464463023e+00	9.956069317845269250e-06	5.309821283219723004e-19	1.955118109344875066e+00	-4.736487790174384027e-06	4.543739226857951873e-19
7.900000000000072593e-07	1.947266274581765044e+00	3.544378101703794820e-05	5.255792409059651075e-19	1.953280043358140983e+00	-1.812628546110348125e-05	4.483196799555446852e-19
8.000000000000071636e-07	1.945228898950337904e+00	4.235299847336010750e-05	5.203013198788748798e-19	1.951456409691848082e+00	-2.150231665242988849e-05	4.424231375045140731e-19
8.100000000000070678e-07	1.943201666926281046e+00	5.041294593268614150e-05	5.151486194325476268e-19	1.949646152174532077e+00	-2.540313715219775850e-05	4.366825617064005321e-19
8.200000000000069721e-07	1.941183615912517091e+00	5.977586233717315450e-05	5.101211038585055685e-19	1.947848286101693027e+00	-2.989015625799901920e-05	4.310959988725732637e-19
8.300000000000068763e-07	1.939173850021951973e+00	7.060285100589885996e-05	5.052184809435070821e-19	1.946061892873945043e+00	-3.502626196995473485e-05	4.256613110411496566e-19
8.400000000000067806e-07	1.937171535199966099e+00	8.306199552446769487e-05	5.004402327151972976e-19	1.944286115096762968e+00	-4.087448055643632099e-05	4.203762080311946196e-19
8.500000000000066849e-07	1.935175894761071991e+00	9.732674172271689288e-05	4.957856436195521046e-19	1.942520152096868014e+00	-4.749675391018798174e-05	4.152382760832012886e-19
8.600000000000065891e-07	1.933186205299675109e+00	1.135752228118366174e-04	4.912538262733872334e-19	1.940763255815020072e+00	-5.495308048875158956e-05	4.102450033688868079e-19
8.700000000000064934e-07	1.931201792939347017e+00	1.319912597976314640e-04	4.868437449392002799e-19	1.939014727039509944e+00	-6.330147552205167604e-05	4.053938026406219962e-19
8.800000000000063976e-07	1.929222029888669976e+00	1.527681573741020431e-04	4.825542368701305602e-19	1.937273911948276028e+00	-7.259911773771116918e-05	4.006820312762878107e-19
8.900000000000063019e-07	1.927246331275217939e+00	1.752650654311558242e-04	4.783840316641707898e-19	1.935540198931029909e+00	-8.224119638385575201e-05	3.961070089592428553e-19
9.000000000000062061e-07	1.925274152232089975e+00	2.007536917026185163e-04	4.743317688239052847e-19	1.933813015665811985e+00	-9.302912308214243936e-05	3.916660332205471685e-19
9.100000000000061104e-07	1.923304985214187912e+00	2.292984512283503242e-04	4.703960134985486447e-19	1.932091826426765024e+00	-1.049009776813846374e-04	3.873563930469224722e-19
9.200000000000060147e-07	1.921338357523546980e+00	2.610993219957419070e-04	4.665752708134344222e-19	1.930376129602656032e+00	-1.178084377987926690e-04	3.831753807488024156e-19
9.300000000000059189e-07	1.919373829025563971e+00	3.268444153413406559e-04	4.628679986855796614e-19	1.928665455407275964e+00	-1.472487071843483499e-04	3.791203022595553391e-19
9.400000000000058232e-07	1.917410990038072915e+00	3.737128329893454177e-04	4.592726191717589030e-19	1.926959363765456068e+00	-1.664853907285656211e-04	3.751884860616513948e-19
9.500000000000057274e-07	1.915449459381119990e+00	4.256260650640280251e-04	4.557875289206784287e-19	1.925257442358567106e+00	-1.874237323135670842e-04	3.713772908266550838e-19
9.600000000000056317e-07	1.913488882570475003e+00	4.828311384954462574e-04	4.524111082471346325e-19	1.923559304816925053e+00	-2.100721787636225068e-04	3.676841119534003016e-19
9.700000000000055359e-07	1.911528930144855032e+00	5.455509967284014267e-04	4.491417293166681638e-19	1.921864589046045957e+00	-2.344187097422154834e-04	3.641063871106092475e-19
9.800000000000054402e-07	1.909569296114872028e+00	6.139839273486167540e-04	4.459777633950003577e-19	1.920172955675730986e+00	-2.604309939968668295e-04	3.606416008944504686e-19
9.900000000000053444e-07	1.907609696523828946e+00	6.883041249774611483e-04	4.429175872671517691e-19	1.918484086621851104e+00	-2.880573716024701324e-04	3.572872887023206940e-19
1.000000000000005249e-06	1.905649868111120027e+00	7.686636661056630822e-04	4.399595889042913148e-19	1.916797683751557901e+00	-3.172283462374868345e-04	3.540410399133073932e-19
1.010000000000005153e-06	1.903689567069988930e+00	8.551952495304954421e-04	4.371021724504696418e-19	1.915113467643573930e+00	-3.478587311827431388e-04	3.509005004567663950e-19
1.020000000000005057e-06	1.901728567892033039e+00	9.480155973947236104e-04	4.343437625953028581e-19	1.913431176435909986e+00	-3.798500677631255588e-04	3.478633748422090519e-19
1.030000000000004961e-06	1.899766662291586972e+00	1.047228761372927469e-03	4.316828083933768906e-19	1.911750564754091108e+00	-4.130929287020153502e-04	3.449274277161384003e-19
1.040000000000004866e-06	1.897803658203695898e+00	1.152928808611035014e-03	4.291177865858224013e-19	1.910071402713551025e+00	-4.474688317898335363e-04	3.420904850046659846e-19
1.050000000000004770e-06	1.895839378849984103e+00	1.265201246113195014e-03	4.266472044749249365e-19	1.908393474990452976e+00	-4.828516400982507868e-04	3.393504346946055355e-19
1.060000000000004674e-06	1.893873661867117919e+00	1.384122067883642717e-03	4.242696023978581031e-19	1.906716579955598068e+00	-5.191074989045230429e-04	3.367052272998869322e-19
1.070000000000004578e-06	1.891906358493147922e+00	1.509754066668033811e-03	4.219835558418875529e-19	1.905040528866676963e+00	-5.560933866723301311e-04	3.341528760552735060e-19
1.080000000000004483e-06	1.889937332807323900e+00	1.642139683621846123e-03	4.197876772391187600e-19	1.903365145114414014e+00	-5.936539108211537179e-04	3.316914568743473016e-19
1.090000000000004387e-06	1.887966461019364051e+00	1.781289692423244312e-03	4.176806174758058038e-19	1.901690263518563073e+00	-6.316163948826685479e-04	3.293191081048449546e-19
1.100000000000004291e-06	1.885993630804539078e+00	1.927167837798551484e-03	4.156610671475053357e-19	1.900015729670091913e+00	-6.697832178547682633e-04	3.270340301106894869e-19
1.110000000000004196e-06	1.884018740681143056e+00	2.079671203914671123e-03	4.137277575888889912e-19	1.898341399316094913e+00	-7.079217448905708024e-04	3.248344847068918383e-19
1.120000000000004100e-06	1.882041699427337900e+00	2.238607577065850930e-03	4.118794617038004656e-19	1.896667137784399992e+00	-7.457522910014458386e-04	3.227187944706551623e-19
1.130000000000004004e-06	1.880062425534426040e+00	2.403670158274829553e-03	4.101149946191451309e-19	1.894992819444921928e+00	-7.829348545917071828e-04	3.206853419490367030e-19
1.140000000000003908e-06	1.878080846694019979e+00	2.574412505035670717e-03	4.084332141834903313e-19	1.893318327205185891e+00	-8.190540295408879059e-04	3.187325687811520187e-19
1.150000000000003813e-06	1.876096899316652911e+00	2.750225058851438285e-03	4.068330213294647800e-19	1.891643552037574949e+00	-8.536052631268959334e-04	3.168589747505763789e-19
1.160000000000003717e-06	1.874110528079625082e+00	2.930317409723535906e-03	4.053133603171013969e-19	1.889968392536065078e+00	-8.859823534746956962e-04	3.150631167818498005e-19
1.170000000000003621e-06	1.872121685502035948e+00	3.113709400920175192e-03	4.038732188734148440e-19	1.888292754500402015e+00	-9.154677978753985581e-04	3.133436078932024694e-19
1.180000000000003525e-06	1.870130331545120095e+00	3.299236052187669646e-03	4.025116282420532513e-19	1.886616550545807014e+00	-9.412289850216306762e-04	3.116991161161511831e-19
1.190000000000003430e-06	1.868136433236134097e+00	3.485570170023349033e-03	4.012276631555251517e-19	1.884939699736470020e+00	-9.623202442990841246e-04	3.101283633912176315e-19
1.200000000000003334e-06	1.866139964314190935e+00	3.671269303668632349e-03	4.000204417410464950e-19	1.883262127241200012e+00	-9.776955141432735249e-04	3.086301244479066305e-19
1.210000000000003238e-06	1.864140904896552042e+00	3.854851390994964121e-03	3.988891253699817013e-19	1.881583764009755022e+00	-9.862316054770241605e-04	3.072032256758621518e-19
1.220000000000003142e-06	1.862139241163990100e+00	4.034904152432774484e-03	3.978329184598202655e-19	1.879904546468436966e+00	-9.867656104538308388e-04	3.058465439932500616e-19
1.230000000000003047e-06	1.860134965063970025e+00	4.210234546557596255e-03	3.968510682366839327e-19	1.878224416233700955e+00	-9.781478641088744725e-04	3.045590057175715278e-19
1.240000000000002951e-06	1.858128074030432009e+00	4.380060163754639913e-03	3.959428644653807016e-19	1.876543319842580937e+00	-9.593137256141150669e-04	3.033395854432287371e-19
1.250000000000002855e-06	1.856118570723314987e+00	4.489925460042655525e-03	3.951076411818119832e-19	1.874861208496118037e+00	-9.439662037823984752e-04	3.021873048968639844e-19
1.260000000000002759e-06	1.854106462762673990e+00	4.553108996565856034e-03	3.943447661785875444e-19	1.873178037829899001e+00	-8.641554495838457608e-04	3.011012322304744834e-19
1.270000000000002664e-06	1.852091762513518036e+00	4.628326243502165795e-03	3.936536611899169163e-19	1.871493767675810105e+00	-7.750492685788745121e-04	3.000804797133386318e-19
1.280000000000002568e-06	1.850074486849492938e+00	4.680528092119860990e-03	3.930337809056852032e-19	1.869808361856452050e+00	-6.607502631627444048e-04	2.991242043271374645e-19
1.290000000000002472e-06	1.848054656942889951e+00	4.711724905127212364e-03	3.924846230073855746e-19	1.868121787983725079e+00	-5.194641472726460900e-04	2.982316056838531202e-19
1.300000000000002376e-06	1.846032298064022026e+00	4.726603620658470159e-03	3.920057257262860850e-19	1.866434017269303025e+00	-3.501110602374865035e-04	2.974019252529433735e-19
1.310000000000002281e-06	1.844007439416009086e+00	6.499426787973821597e-03	3.915966723945439293e-19	1.864745024341867063e+00	-9.746151764195387732e-04	2.966344451743501803e-19
1.320000000000002185e-06	1.841980113865439028e+00	6.730480224788806115e-03	3.912570738622864592e-19	1.863054787090796083e+00	-8.987857536276663839e-04	2.959284874559343365e-19
1.330000000000002089e-06	1.839950357888064048e+00	6.948298886695368493e-03	3.909865911032274358e-19	1.861363286492837998e+00	-8.025232786218327186e-04	2.952834133982643375e-19
1.340000000000001993e-06	1.837918211336043939e+00	7.150109473466537656e-03	3.907849211713515682e-19	1.859670506468203088e+00	-6.835915121265537242e-04	2.946986220951354232e-19
1.350000000000001898e-06	1.835883717298520068e+00	7.333192457427263264e-03	3.906517999568999458e-19	1.857976433736896027e+00	-5.397747254234101701e-04	2.941735497361037746e-19
1.360000000000001802e-06	1.833846921954130904e+00	7.494941183029400419e-03	3.905870018630701488e-19	1.856281057683971003e+00	-3.689228461997402591e-04	2.937076687285843787e-19
1.370000000000001706e-06	1.831807874430575911e+00	7.632916538719608859e-03	3.905903394935483184e-19	1.854584370231983970e+00	-1.689979572163372219e-04	2.933004868445471586e-19
1.380000000000001610e-06	1.829766626670860985e+00	7.744888125554913808e-03	3.906616633516083623e-19	1.852886365720310957e+00	6.188033815192879139e-05	2.929515463914000888e-19
1.390000000000001515e-06	1.827723233305752926e+00	7.828863958334250639e-03	3.908008615520102649e-19	1.851187040790837068e+00	3.253919765531285255e-04	2.926604234069101293e-19
1.400000000000001419e-06	1.825677751532132964e+00	7.883097330941859354e-03	3.910078595459063685e-19	1.849486394279695078e+00	6.229792399572583409e-04	2.924267268774605582e-19
1.410000000000001323e-06	1.823630240996839902e+00	7.906070403954159470e-03	3.912826198598716068e-19	1.847784427114675054e+00	9.558166226838240567e-04	2.922500979794071364e-19
1.420000000000001227e-06	1.821580763685703097e+00	7.896451549837424366e-03	3.916251418490268270e-19	1.846081142217971927e+00	1.324791013986797040e-03	2.921302093427355792e-19
1.430000000000001132e-06	1.819529383817449109e+00	7.853018906897334811e-03	3.920354614647627788e-19	1.844376544413985908e+00	1.730493485714247517e-03	2.920667643364898350e-19
1.440000000000001036e-06	1.817476167742199999e+00	7.774556011955716106e-03	3.925136510373147573e-19	1.842670640341850019e+00	2.173224836051662005e-03	2.920594963752720612e-19
1.450000000000000940e-06	1.815421183844271091e+00	7.659711329711625660e-03	3.930598190731306987e-19	1.840963438372450023e+00	2.653018567763598765e-03	2.921081682460917340e-19
1.460000000000000844e-06	1.813364502449029025e+00	7.506831137041081875e-03	3.936741100672782371e-19	1.839254948529635003e+00	3.169677586580585404e-03	2.922125714548145628e-19
1.470000000000000749e-06	1.811306195733588087e+00	7.313765590988668443e-03	3.943567043307729034e-19	1.837545182415446066e+00	3.722832009187096967e-03	2.923725255915117104e-19
1.480000000000000653e-06	1.809246337641075009e+00	7.077657524496829000e-03	3.951078178326990068e-19	1.835834153139066061e+00	4.312011634820900850e-03	2.925878777137452951e-19
1.490000000000000557e-06	1.807185003798313039e+00	6.794721621908436301e-03	3.959277020571227182e-19	1.834121875249334011e+00	4.936737334767493310e-03	2.928585017471910659e-19
1.500000000000000462e-06	1.805122271436663928e+00	6.460027722878981631e-03	3.968166438742117748e-19	1.832408364670597978e+00	5.596624936787431177e-03	2.931842979025932048e-19
1.510000000000000366e-06	1.803058219315915034e+00	6.067305397216133517e-03	3.977749654254054225e-19	1.830693638641738064e+00	6.291504419592311263e-03	2.935651921083224831e-19
1.520000000000000270e-06	1.800992927650963971e+00	5.608783746090544378e-03	3.988030240214931437e-19	1.828977715658169023e+00	7.021545005351945146e-03	2.940011354575480861e-19
1.530000000000000174e-06	1.798926478041199983e+00	5.075094482264505720e-03	3.999012120529095590e-19	1.827260615416665068e+00	7.787386281670936883e-03	2.944921036694438815e-19
1.540000000000000079e-06	1.796858953402395986e+00	4.455254181508404299e-03	4.010699569112861490e-19	1.825542358762862083e+00	8.590264858282476573e-03	2.950380965633103107e-19
1.549999999999999983e-06	1.794790437900976032e+00	3.736787893640925243e-03	4.023097209292868875e-19	1.823822967641268056e+00	9.432132936889669333e-03	2.956391375479978424e-19
1.559999999999999887e-06	1.792721016890536090e+00	2.905791021622136823e-03	4.036210012828565603e-19	1.822102465047680919e+00	1.031577266488604462e-02	2.962952731062699963e-19
1.569999999999999791e-06	1.790650776850468917e+00	1.947635160516957877e-03	4.050043300222030072e-19	1.820380874983845931e+00	1.124484992947234231e-02	2.970065723313146764e-19
1.579999999999999696e-06	1.788579805326605099e+00	8.472224081028974100e-04	4.064602739573253836e-19	1.818658222414258008e+00	1.222398211807754730e-02	2.977731264195874979e-19
1.589999999999999600e-06	1.786508190873725033e+00	-4.100901099315031354e-04	4.079894346681450813e-19	1.816934533224979109e+00	1.325872483971022447e-02	2.985950482121421337e-19
1.599999999999999504e-06	1.784436022999875915e+00	-1.837510004586528521e-03	4.095924484813440615e-19	1.815209834184370985e+00	1.435552372306298473e-02	2.994724717299827194e-19
1.609999999999999408e-06	1.782363392112372047e+00	-3.445559405449612634e-03	4.112699864623948276e-19	1.813484152905652902e+00	1.552158927258517895e-02	3.004055517190617477e-19
1.619999999999999313e-06	1.780290389465398082e+00	-5.240568883183167360e-03	4.130227544162476928e-19	1.811757517811154017e+00	1.676471283145609253e-02	3.013944632023601864e-19
1.629999999999999217e-06	1.778217107109115958e+00	-7.222913587235943109e-03	4.148514928952152970e-19	1.810029958098192004e+00	1.809298516466957898e-02	3.024394010382884010e-19
1.639999999999999121e-06	1.776143637840233103e+00	-9.384992460111641482e-03	4.167569772131700803e-19	1.808301503706513991e+00	1.951443531759965155e-02	3.035405794844438595e-19
1.649999999999999025e-06	1.774070075154128068e+00	-1.170897544709520281e-02	4.187400174787539602e-19	1.806572185289119004e+00	2.103656383438587060e-02	3.046982318166309410e-19
1.659999999999998930e-06	1.771996513197189982e+00	-1.416433863518024722e-02	4.208014585692666214e-19	1.804842034174706011e+00	2.266578062975421054e-02	3.059126097006151250e-19
