# 2020-03-24_16.04.35
# shape = Gauss
# FWHM_ps = 0.1
# carrier_nm = 1550
# frep_MHz = 100
# pow_mW = 80
# GDD = 0.0
# propa_len = 0.1
# untap_len = 0.01
# taper_len = 0.08
# waist_len = 0.02
# uptap_len = 0.04
# untap_scale = 1.0
# waist_scale = 0.32
# workingDir = NL_20110305_12 (Spirou)
# axis = slow
# window_ps = 10.0
# steps = 200
# points = 11000
# 
# wavelength [nm]	 power spectral density [dB]
403.318464	-175.342755
403.372731	-176.068053
403.427012	-176.914252
403.481308	-178.026150
403.535619	-179.377501
403.589944	-180.925446
403.644284	-182.498567
403.698638	-183.850902
403.753007	-184.771021
403.807391	-185.183423
403.861790	-185.224353
403.916203	-185.164609
403.970630	-185.241739
404.025073	-185.555457
404.079530	-186.043720
404.134002	-186.539817
404.188488	-186.913247
404.242989	-187.156553
404.297505	-187.247086
404.352036	-186.998867
404.406581	-186.241547
404.461141	-185.114062
404.515716	-183.929502
404.570305	-182.899561
404.624909	-182.108453
404.679528	-181.599438
404.734162	-181.436558
404.788810	-181.715588
404.843474	-182.558226
404.898152	-184.114905
404.952844	-186.597661
405.007552	-190.348738
405.062274	-195.540106
405.117011	-197.076698
405.171763	-193.157346
405.226530	-190.198084
405.281311	-188.386224
405.336107	-187.468304
405.390919	-187.397733
405.445745	-188.208993
405.500585	-189.839177
405.555441	-191.560441
405.610311	-191.536469
405.665197	-189.869961
405.720097	-188.338291
405.775012	-187.560998
405.829942	-187.601942
405.884886	-188.534519
405.939846	-190.701228
405.994821	-195.272690
406.049810	-204.105174
406.104814	-194.369111
406.159834	-188.624971
406.214868	-185.503278
406.269917	-183.800419
406.324981	-183.110956
406.380060	-183.258996
406.435153	-184.145414
406.490262	-185.675542
406.545386	-187.704455
406.600525	-190.021498
406.655678	-192.410282
406.710847	-194.358703
406.766030	-194.162084
406.821229	-191.699034
406.876442	-189.138808
406.931671	-187.271715
406.986914	-186.020914
407.042173	-185.080166
407.097446	-184.121876
407.152735	-183.014597
407.208039	-181.892671
407.263357	-180.972131
407.318691	-180.388616
407.374039	-180.171298
407.429403	-180.267396
407.484782	-180.565862
407.540176	-180.938376
407.595584	-181.314585
407.651008	-181.741042
407.706447	-182.359797
407.761901	-183.325878
407.817371	-184.710477
407.872855	-186.310222
407.928354	-187.295491
407.983869	-186.719083
408.039398	-185.073963
408.094943	-183.280394
408.150503	-181.649646
408.206078	-180.205600
408.261668	-178.944972
408.317273	-177.884549
408.372893	-177.036872
408.428529	-176.388604
408.484180	-175.904434
408.539846	-175.551153
408.595527	-175.324698
408.651223	-175.259324
408.706934	-175.412172
408.762661	-175.835705
408.818403	-176.553074
408.874160	-177.537518
408.929932	-178.689568
408.985719	-179.815018
409.041522	-180.635750
409.097340	-180.907615
409.153173	-180.610340
409.209021	-179.970022
409.264885	-179.256034
409.320764	-178.609773
409.376658	-178.007952
409.432567	-177.320437
409.488492	-176.451268
409.544432	-175.459028
409.600387	-174.516910
409.656358	-173.786430
409.712343	-173.355903
409.768345	-173.243559
409.824361	-173.416459
409.880393	-173.803586
409.936440	-174.303584
409.992502	-174.788207
410.048580	-175.109657
410.104673	-175.137821
410.160781	-174.838970
410.216905	-174.319540
410.273044	-173.760555
410.329199	-173.315578
410.385369	-173.063638
410.441554	-173.009381
410.497755	-173.100640
410.553971	-173.251639
410.610202	-173.373538
410.666449	-173.404739
410.722711	-173.323571
410.778989	-173.140260
410.835282	-172.880266
410.891591	-172.570669
410.947915	-172.229639
411.004254	-171.863994
411.060609	-171.479328
411.116979	-171.098842
411.173365	-170.772401
411.229766	-170.565317
411.286183	-170.535460
411.342615	-170.712392
411.399063	-171.083596
411.455526	-171.586169
411.512005	-172.106971
411.568499	-172.501521
411.625009	-172.642008
411.681534	-172.475299
411.738075	-172.049082
411.794631	-171.482483
411.851203	-170.907754
411.907790	-170.421510
411.964393	-170.062692
412.021012	-169.812702
412.077646	-169.614114
412.134296	-169.407375
412.190961	-169.171341
412.247642	-168.935317
412.304338	-168.753047
412.361050	-168.664317
412.417778	-168.672094
412.474521	-168.740180
412.531280	-168.805898
412.588054	-168.802713
412.644844	-168.686494
412.701650	-168.455521
412.758471	-168.154411
412.815308	-167.859555
412.872161	-167.654540
412.929029	-167.606372
412.985913	-167.748861
413.042813	-168.070717
413.099728	-168.505135
413.156659	-168.929989
413.213606	-169.199449
413.270568	-169.213918
413.327546	-168.975436
413.384540	-168.567833
413.441550	-168.095431
413.498575	-167.644685
413.555616	-167.274941
413.612673	-167.016194
413.669745	-166.865627
413.726833	-166.787191
413.783937	-166.724400
413.841057	-166.629698
413.898193	-166.495301
413.955344	-166.358191
414.012511	-166.273798
414.069694	-166.282062
414.126893	-166.387520
414.184107	-166.556215
414.241338	-166.725267
414.298584	-166.821761
414.355846	-166.789058
414.413124	-166.611457
414.470417	-166.324357
414.527727	-166.002086
414.585052	-165.730373
414.642393	-165.578394
414.699750	-165.578692
414.757123	-165.714005
414.814512	-165.912136
414.871917	-166.061572
414.929337	-166.063837
414.986774	-165.897637
415.044226	-165.628608
415.101694	-165.353272
415.159178	-165.142283
415.216679	-165.023137
415.274195	-164.989825
415.331727	-165.018632
415.389275	-165.077587
415.446838	-165.128219
415.504418	-165.126704
415.562014	-165.035187
415.619626	-164.844456
415.677254	-164.588799
415.734897	-164.335339
415.792557	-164.155563
415.850233	-164.100356
415.907924	-164.188374
415.965632	-164.404655
416.023356	-164.704329
416.081096	-165.021523
416.138851	-165.285403
416.196623	-165.442838
416.254411	-165.478283
416.312215	-165.417211
416.370035	-165.310106
416.427871	-165.206755
416.485723	-165.133937
416.543591	-165.082801
416.601476	-165.010652
416.659376	-164.863330
416.717292	-164.613541
416.775225	-164.288286
416.833174	-163.959126
416.891138	-163.706608
416.949119	-163.590600
417.007116	-163.638986
417.065130	-163.848559
417.123159	-164.188693
417.181204	-164.603570
417.239266	-165.012728
417.297344	-165.314619
417.355438	-165.406375
417.413548	-165.228309
417.471674	-164.806112
417.529817	-164.243267
417.587975	-163.667014
417.646150	-163.180607
417.704341	-162.846742
417.762549	-162.691013
417.820772	-162.709917
417.879012	-162.877270
417.937268	-163.148684
417.995541	-163.466591
418.053829	-163.768215
418.112134	-163.996970
418.170455	-164.114699
418.228792	-164.108936
418.287146	-163.991624
418.345516	-163.791028
418.403902	-163.541528
418.462304	-163.276055
418.520723	-163.022407
418.579158	-162.802583
418.637610	-162.633608
418.696078	-162.527935
418.754562	-162.493417
418.813062	-162.532388
418.871579	-162.640911
418.930112	-162.808565
418.988661	-163.019332
419.047227	-163.253061
419.105810	-163.487712
419.164408	-163.702310
419.223023	-163.880306
419.281655	-164.012953
419.340302	-164.100238
419.398967	-164.147557
419.457647	-164.157874
419.516344	-164.123350
419.575058	-164.023470
419.633788	-163.834811
419.692534	-163.549901
419.751297	-163.192698
419.810076	-162.816727
419.868872	-162.488064
419.927684	-162.266610
419.986513	-162.195104
420.045358	-162.295923
420.104220	-162.571367
420.163098	-163.003469
420.221992	-163.552002
420.280904	-164.151758
420.339831	-164.713286
420.398776	-165.135034
420.457736	-165.331950
420.516714	-165.270182
420.575707	-164.981986
420.634718	-164.547148
420.693745	-164.058066
420.752788	-163.593192
420.811848	-163.206510
420.870925	-162.926804
420.930018	-162.760617
420.989128	-162.695805
421.048255	-162.706067
421.107398	-162.758196
421.166558	-162.822010
421.225734	-162.880293
421.284927	-162.933398
421.344137	-162.995424
421.403363	-163.084616
421.462606	-163.212956
421.521865	-163.379718
421.581141	-163.570149
421.640434	-163.758084
421.699744	-163.911538
421.759070	-163.999918
421.818413	-164.001880
421.877773	-163.912449
421.937149	-163.746656
421.996542	-163.537422
422.055952	-163.327906
422.115379	-163.161448
422.174822	-163.072363
422.234282	-163.079297
422.293759	-163.180839
422.353252	-163.353293
422.412763	-163.552802
422.472290	-163.726723
422.531834	-163.835672
422.591394	-163.876444
422.650972	-163.887583
422.710566	-163.932847
422.770177	-164.076053
422.829805	-164.362993
422.889449	-164.812738
422.949111	-165.414506
423.008789	-166.126888
423.068485	-166.880463
423.128197	-167.586713
423.187925	-168.152865
423.247671	-168.494128
423.307434	-168.540672
423.367213	-168.255511
423.427010	-167.670119
423.486823	-166.896294
423.546653	-166.084046
423.606500	-165.366906
423.666364	-164.837124
423.726245	-164.547707
423.786143	-164.521221
423.846058	-164.753561
423.905990	-165.209009
423.965939	-165.805880
424.025904	-166.402067
424.085887	-166.812634
424.145886	-166.897550
424.205903	-166.662523
424.265937	-166.241629
424.325987	-165.786343
424.386055	-165.395596
424.446139	-165.112279
424.506241	-164.944130
424.566360	-164.883033
424.626495	-164.917914
424.686648	-165.042395
424.746818	-165.256818
424.807004	-165.565440
424.867208	-165.970334
424.927429	-166.463599
424.987667	-167.018640
425.047922	-167.582330
425.108194	-168.075087
425.168484	-168.411094
425.228790	-168.540420
425.289113	-168.481570
425.349454	-168.309158
425.409812	-168.107261
425.470186	-167.931587
425.530578	-167.797542
425.590988	-167.689815
425.651414	-167.584979
425.711857	-167.476295
425.772318	-167.387677
425.832796	-167.369233
425.893291	-167.478968
425.953803	-167.759139
426.014332	-168.209373
426.074879	-168.752000
426.135442	-169.202219
426.196023	-169.315583
426.256622	-168.976839
426.317237	-168.331231
426.377870	-167.647215
426.438520	-167.135645
426.499187	-166.911699
426.559871	-167.028123
426.620573	-167.506614
426.681292	-168.353301
426.742028	-169.562547
426.802782	-171.114091
426.863553	-172.967427
426.924341	-175.042076
426.985147	-177.078528
427.045969	-178.125372
427.106810	-176.832422
427.167667	-173.983749
427.228542	-171.047944
427.289434	-168.513695
427.350344	-166.437420
427.411271	-164.784905
427.472215	-163.513293
427.533177	-162.586974
427.594156	-161.979996
427.655152	-161.675997
427.716166	-161.667845
427.777197	-161.957451
427.838246	-162.556017
427.899312	-163.484081
427.960396	-164.768709
428.021497	-166.428084
428.082615	-168.410492
428.143751	-170.409092
428.204905	-171.637650
428.266075	-171.507616
428.327264	-170.636196
428.388470	-169.849196
428.449693	-169.489122
428.510934	-169.620758
428.572192	-170.162403
428.633468	-170.800766
428.694761	-170.858853
428.756072	-169.799391
428.817401	-168.013288
428.878747	-166.180103
428.940110	-164.628292
429.001491	-163.439511
429.062890	-162.610207
429.124306	-162.116135
429.185740	-161.930930
429.247192	-162.029593
429.308661	-162.387070
429.370147	-162.974402
429.431652	-163.753045
429.493173	-164.669506
429.554713	-165.652311
429.616270	-166.614281
429.677845	-167.459907
429.739437	-168.090663
429.801047	-168.408392
429.862675	-168.337242
429.924321	-167.877340
429.985984	-167.138036
430.047665	-166.292813
430.109363	-165.503762
430.171079	-164.884435
430.232813	-164.501726
430.294565	-164.389211
430.356334	-164.553946
430.418122	-164.970223
430.479926	-165.557046
430.541749	-166.145317
430.603589	-166.486811
430.665448	-166.394331
430.727324	-165.922187
430.789217	-165.315677
430.851129	-164.815524
430.913058	-164.572588
430.975005	-164.665901
431.036970	-165.134252
431.098953	-165.985348
431.160953	-167.164462
431.222972	-168.449715
431.285008	-169.321252
431.347062	-169.240974
431.409134	-168.369946
431.471224	-167.321253
431.533332	-166.489934
431.595457	-166.005105
431.657601	-165.867049
431.719762	-166.009691
431.781941	-166.303466
431.844139	-166.549353
431.906354	-166.534874
431.968587	-166.175660
432.030838	-165.587253
432.093107	-164.978266
432.155394	-164.522783
432.217698	-164.328624
432.280021	-164.460414
432.342362	-164.966247
432.404721	-165.895227
432.467097	-167.308218
432.529492	-169.270359
432.591905	-171.744104
432.654336	-174.072126
432.716785	-174.466512
432.779251	-172.907136
432.841736	-171.203544
432.904239	-170.054028
432.966760	-169.525457
433.029299	-169.569180
433.091856	-170.106408
433.154431	-170.950420
433.217025	-171.607285
433.279636	-171.307743
433.342266	-169.910864
433.404913	-168.110989
433.467579	-166.462504
433.530263	-165.158439
433.592965	-164.231406
433.655685	-163.671380
433.718423	-163.464362
433.781179	-163.601853
433.843954	-164.084677
433.906746	-164.925010
433.969557	-166.146907
434.032386	-167.787595
434.095234	-169.902577
434.158099	-172.577033
434.220983	-175.940911
434.283885	-180.069302
434.346805	-183.185348
434.409743	-180.457024
434.472700	-176.027995
434.535675	-172.302191
434.598668	-169.263118
434.661679	-166.779396
434.724709	-164.765492
434.787757	-163.163059
434.850823	-161.929713
434.913908	-161.036198
434.977010	-160.464333
435.040132	-160.204570
435.103271	-160.256357
435.166429	-160.630134
435.229605	-161.349011
435.292800	-162.453079
435.356012	-164.011180
435.419244	-166.143595
435.482493	-169.074799
435.545761	-173.294836
435.609047	-180.145945
435.672352	-186.846677
435.735675	-179.742292
435.799017	-176.262773
435.862377	-174.536402
435.925755	-173.303136
435.989152	-171.770699
436.052567	-169.738644
436.116001	-167.531037
436.179453	-165.481786
436.242924	-163.742156
436.306413	-162.347374
436.369921	-161.290116
436.433447	-160.554382
436.496991	-160.126396
436.560554	-159.999065
436.624136	-160.175148
436.687736	-160.668884
436.751355	-161.509763
436.814992	-162.750567
436.878648	-164.480751
436.942322	-166.849865
437.006015	-170.082330
437.069726	-174.124890
437.133456	-175.876519
437.197205	-173.128663
437.260972	-170.425182
437.324758	-168.730154
437.388562	-167.872832
437.452385	-167.719798
437.516227	-168.234637
437.580087	-169.455232
437.643966	-171.398843
437.707864	-173.426877
437.771780	-172.934561
437.835715	-169.805188
437.899669	-166.647495
437.963641	-164.109263
438.027632	-162.121874
438.091642	-160.565672
438.155670	-159.351293
438.219717	-158.416666
438.283783	-157.719090
438.347868	-157.228345
438.411971	-156.922370
438.476093	-156.785588
438.540234	-156.806757
438.604394	-156.976949
438.668572	-157.289061
438.732769	-157.735367
438.796985	-158.304060
438.861220	-158.975045
438.925473	-159.711469
438.989746	-160.449226
439.054037	-161.093532
439.118347	-161.533890
439.182676	-161.691844
439.247024	-161.573724
439.311390	-161.268605
439.375776	-160.898221
439.440180	-160.569681
439.504603	-160.357990
439.569046	-160.313559
439.633507	-160.473077
439.697987	-160.867949
439.762485	-161.533766
439.827003	-162.517417
439.891540	-163.885783
439.956095	-165.738629
440.020670	-168.202720
440.085264	-171.244925
440.149876	-173.474847
440.214508	-172.169717
440.279158	-169.359140
440.343828	-166.999126
440.408516	-165.251922
440.473224	-163.985500
440.537950	-163.077153
440.602696	-162.433625
440.667460	-161.980651
440.732244	-161.653381
440.797046	-161.394694
440.861868	-161.156394
440.926709	-160.903315
440.991569	-160.619574
441.056448	-160.308110
441.121346	-159.986392
441.186263	-159.679144
441.251199	-159.410871
441.316155	-159.201917
441.381129	-159.066661
441.446123	-159.013667
441.511135	-159.046543
441.576167	-159.164469
441.641218	-159.362786
441.706289	-159.633983
441.771378	-159.967010
441.836487	-160.346087
441.901614	-160.750769
441.966762	-161.152442
442.031928	-161.512211
442.097113	-161.781548
442.162318	-161.905461
442.227542	-161.835503
442.292785	-161.546846
442.358047	-161.052417
442.423329	-160.397441
442.488630	-159.642685
442.553950	-158.848357
442.619290	-158.062851
442.684648	-157.321633
442.750027	-156.648405
442.815424	-156.058632
442.880841	-155.562375
442.946277	-155.165969
443.011732	-154.874056
443.077207	-154.690031
443.142701	-154.617062
443.208215	-154.658401
443.273747	-154.817491
443.339300	-155.098488
443.404871	-155.506128
443.470462	-156.046065
443.536073	-156.725226
443.601703	-157.551623
443.667352	-158.534819
443.733021	-159.685441
443.798709	-161.014557
443.864416	-162.532046
443.930143	-164.241530
443.995890	-166.131231
444.061656	-168.148040
444.127442	-170.141999
444.193247	-171.776466
444.259071	-172.535210
444.324915	-172.109900
444.390779	-170.754844
444.456662	-168.943050
444.522564	-167.000336
444.588486	-165.091088
444.654428	-163.290851
444.720389	-161.631501
444.786370	-160.122260
444.852371	-158.760962
444.918391	-157.540545
444.984430	-156.451347
445.050489	-155.483337
445.116568	-154.626733
445.182667	-153.872385
445.248785	-153.212269
445.314922	-152.639288
445.381080	-152.147414
445.447257	-151.731840
445.513454	-151.388693
445.579670	-151.115034
445.645906	-150.908960
445.712162	-150.769573
445.778437	-150.696791
445.844733	-150.691393
445.911047	-150.755247
445.977382	-150.890860
446.043736	-151.101417
446.110111	-151.390873
446.176504	-151.763511
446.242918	-152.223438
446.309352	-152.774305
446.375805	-153.417626
446.442278	-154.150323
446.508771	-154.960167
446.575283	-155.817736
446.641816	-156.664587
446.708368	-157.403489
446.774940	-157.907064
446.841532	-158.066169
446.908144	-157.858719
446.974775	-157.366946
447.041427	-156.720030
447.108098	-156.031821
447.174789	-155.377256
447.241501	-154.797725
447.308232	-154.313189
447.374983	-153.931544
447.441754	-153.654822
447.508545	-153.482091
447.575355	-153.411428
447.642186	-153.440620
447.709037	-153.567404
447.775908	-153.789339
447.842798	-154.103494
447.909709	-154.505304
447.976640	-154.987152
448.043590	-155.536075
448.110561	-156.130479
448.177552	-156.735944
448.244562	-157.302903
448.311593	-157.769226
448.378644	-158.072810
448.445715	-158.174553
448.512806	-158.077342
448.579917	-157.824993
448.647048	-157.483294
448.714199	-157.117596
448.781371	-156.780405
448.848562	-156.509423
448.915774	-156.330601
448.983005	-156.261983
449.050257	-156.317389
449.117529	-156.509211
449.184821	-156.850127
449.252134	-157.354883
449.319466	-158.041060
449.386819	-158.929205
449.454192	-160.039062
449.521585	-161.375218
449.588998	-162.878482
449.656432	-164.300214
449.723885	-165.058350
449.791359	-164.611820
449.858854	-163.235010
449.926368	-161.587944
449.993903	-160.040085
450.061458	-158.701529
450.129033	-157.581321
450.196629	-156.660513
450.264245	-155.915718
450.331881	-155.325770
450.399537	-154.872827
450.467214	-154.542087
450.534912	-154.321013
450.602629	-154.198766
450.670367	-154.165562
450.738125	-154.212382
450.805904	-154.330550
450.873703	-154.511720
450.941523	-154.747829
451.009363	-155.031259
451.077223	-155.355258
451.145104	-155.714241
451.213005	-156.104204
451.280926	-156.522583
451.348868	-156.967610
451.416831	-157.436644
451.484814	-157.922787
451.552817	-158.410302
451.620841	-158.867587
451.688886	-159.241449
451.756951	-159.457270
451.825036	-159.436050
451.893142	-159.129064
451.961269	-158.548396
452.029416	-157.762326
452.097583	-156.861467
452.165772	-155.926072
452.233980	-155.013256
452.302210	-154.158333
452.370460	-153.381157
452.438730	-152.692023
452.507021	-152.095694
452.575333	-151.593912
452.643665	-151.186979
452.712018	-150.874557
452.780392	-150.656458
452.848786	-150.533051
452.917201	-150.505477
452.985637	-150.575952
453.054094	-150.747747
453.122571	-151.025583
453.191068	-151.416012
453.259587	-151.928026
453.328126	-152.573975
453.396686	-153.370374
453.465267	-154.339054
453.533868	-155.508085
453.602490	-156.910756
453.671133	-158.576106
453.739797	-160.484495
453.808481	-162.408867
453.877187	-163.604923
453.945913	-163.202237
454.014660	-161.607578
454.083427	-159.773237
454.152216	-158.121340
454.221025	-156.732001
454.289856	-155.587248
454.358707	-154.652369
454.427579	-153.895624
454.496472	-153.291466
454.565386	-152.819878
454.634320	-152.465196
454.703276	-152.214931
454.772252	-152.058692
454.841250	-151.987386
454.910268	-151.992258
454.979308	-152.064104
455.048368	-152.192315
455.117449	-152.363896
455.186551	-152.562470
455.255675	-152.767547
455.324819	-152.954562
455.393984	-153.096208
