# wavelength [m]	effective refractive index	transmission [dB/m]	effective mode area [m]	effective refractive index	transmission [dB/m]	effective mode area [m]	
5.500000000000095572e-07	1.946939424378699934e+00	-1.457147982907262722e-09	2.711453438870727221e-13	1.956128281930054058e+00	-1.806442820663570458e-09	2.604726012854941938e-13
5.600000000000094614e-07	1.942570689599210976e+00	-8.613049882406747373e-10	2.741259810266217201e-13	1.952168351188463102e+00	-1.633974299693401390e-09	2.626582794514728980e-13
5.700000000000093657e-07	1.938264649039675991e+00	-6.369763826400874532e-10	2.771646551077544149e-13	1.948279036078091053e+00	-1.528813907263739952e-09	2.648734066073566746e-13
5.800000000000092699e-07	1.934015242205944896e+00	-3.630344790875034804e-09	2.802625257908091547e-13	1.944453877014052923e+00	-3.401089436100935162e-09	2.671186979118968803e-13
5.900000000000091742e-07	1.929817019599080918e+00	2.631360357904238606e-10	2.834207173055226569e-13	1.940687256154741913e+00	-7.990398102046266421e-10	2.693948793080136435e-13
6.000000000000090785e-07	1.925665076180717916e+00	7.624146528845048276e-10	2.866403567769056007e-13	1.936974093454876034e+00	-2.065406211187608617e-10	2.717026811329369052e-13
6.100000000000089827e-07	1.921554993444825055e+00	1.124589048074173864e-09	2.899225744132484017e-13	1.933309788863798007e+00	4.655676575523068528e-10	2.740428390303521734e-13
6.200000000000088870e-07	1.917482788643557923e+00	1.245881192456677998e-09	2.932685036311101000e-13	1.929690171679177002e+00	1.172846887470135656e-09	2.764160948006609582e-13
6.300000000000087912e-07	1.913444870166095102e+00	1.041823714622948052e-09	2.966792811283504723e-13	1.926111456055173088e+00	1.907589199180774155e-09	2.788231971987587089e-13
6.400000000000086955e-07	1.909437998225103073e+00	4.630594418120699182e-10	3.001560469097111878e-13	1.922570201819910896e+00	2.670325937104027781e-09	2.812649026854903832e-13
6.500000000000085997e-07	1.905459250134803995e+00	-5.117295312675826601e-10	3.036999442706876544e-13	1.919063279886433104e+00	3.487947372608472501e-09	2.837419761386563100e-13
6.600000000000085040e-07	1.901505989572094046e+00	-1.849744499076172899e-09	3.073121197448702181e-13	1.915587841648741962e+00	4.392477856467605115e-09	2.862551915287173208e-13
6.700000000000084082e-07	1.897575839301810063e+00	-3.471946289744405333e-09	3.109937230196609513e-13	1.912141291844279056e+00	5.408020753623676779e-09	2.888053325636727122e-13
6.800000000000083125e-07	1.893666656922543989e+00	-5.211710689096772910e-09	3.147459068250306844e-13	1.908721264439390941e+00	6.578053732090193917e-09	2.913931933070573626e-13
6.900000000000082168e-07	1.889776513252511947e+00	-6.828597590180517684e-09	3.185698267998520910e-13	1.905325601157503934e+00	7.935308958879826524e-09	2.940195787725290419e-13
7.000000000000081210e-07	1.885903673028284988e+00	-7.991442475309999403e-09	3.224666413401983287e-13	1.901952332323006090e+00	9.465634928276244066e-09	2.966853054981439541e-13
7.100000000000080253e-07	1.882046577634225892e+00	-8.336290317471299504e-09	3.264375114339548785e-13	1.898599659738857914e+00	1.116929683014910802e-08	2.993912021030312652e-13
7.200000000000079295e-07	1.878203829618789955e+00	-2.382939894515978552e-07	3.304836004805150738e-13	1.895265941354300043e+00	2.330030197967368800e-08	3.021381098287193017e-13
7.300000000000078338e-07	1.874374178786347045e+00	6.976833368333611100e-08	3.346060741393943851e-13	1.891949677511377104e+00	1.580327505920676684e-08	3.049268830670410159e-13
7.400000000000077380e-07	1.870556509680632029e+00	6.402431143132439155e-08	3.388061000904560346e-13	1.888649498586866038e+00	2.128087394817789892e-08	3.077583898819668628e-13
7.500000000000076423e-07	1.866749830300479029e+00	-1.058729608015767901e-07	3.430848479170753696e-13	1.885364153869911963e+00	3.791490546327981845e-08	3.106335125107759341e-13
7.600000000000075466e-07	1.862953261907700941e+00	-6.703314044312314932e-08	3.474434889097932163e-13	1.882092501535916895e+00	5.015173101141829030e-08	3.135531478671718033e-13
7.700000000000074508e-07	1.859166029805543907e+00	-7.229459122421494007e-08	3.518831959071933708e-13	1.878833499594912082e+00	2.073852667329399776e-07	3.165182080377718898e-13
7.800000000000073551e-07	1.855387454980554018e+00	-7.419689256623499176e-08	3.564051431651989243e-13	1.875586197707449942e+00	1.948623536468439346e-07	3.195296207689083489e-13
7.900000000000072593e-07	1.851616946513970019e+00	-6.231040502702719362e-09	3.610105062335424006e-13	1.872349729774422045e+00	-7.364221043370504851e-08	3.225883299516898320e-13
8.000000000000071636e-07	1.847853994680070944e+00	-8.973541955613697844e-08	3.657004618607433834e-13	1.869123307218168994e+00	3.926950974409448826e-08	3.256952961044202476e-13
8.100000000000070678e-07	1.844098164658664940e+00	-1.084654149497319120e-07	3.704761879418328626e-13	1.865906212882016080e+00	4.363663057036653939e-08	3.288514968528600576e-13
8.200000000000069721e-07	1.840349090797247067e+00	-1.291861965524794095e-07	3.753388634842650521e-13	1.862697795484347996e+00	4.854350572015423317e-08	3.320579274099819950e-13
8.300000000000068763e-07	1.836606471366101001e+00	-1.518928067851954459e-07	3.802896686262297170e-13	1.859497464570045944e+00	5.395238466476402581e-08	3.353156010547777764e-13
8.400000000000067806e-07	1.832870063755813073e+00	-1.765881478226567121e-07	3.853297846965062943e-13	1.856304685909097030e+00	5.982635584039165292e-08	3.386255496122488874e-13
8.500000000000066849e-07	1.829139680072515040e+00	-2.032503420005311890e-07	3.904603943253174541e-13	1.853118977297643077e+00	6.611373611536711909e-08	3.419888239346373830e-13
8.600000000000065891e-07	1.825415183090985938e+00	-2.317889122899918247e-07	3.956826816107130675e-13	1.849939904721652040e+00	7.276859071412302523e-08	3.454064943846766755e-13
8.700000000000064934e-07	1.821696482530307915e+00	-2.621260939099407019e-07	4.009978323454060612e-13	1.846767078847892041e+00	7.973070124309964869e-08	3.488796513215237937e-13
8.800000000000063976e-07	1.817983531620392945e+00	-2.940031501066505045e-07	4.064070343091763723e-13	1.843600151810530052e+00	8.698340605118595860e-08	3.524094055899862788e-13
8.900000000000063019e-07	1.814276323931282908e+00	-3.270589108386030984e-07	4.119114776317283343e-13	1.840438814265221934e+00	9.444210469012591676e-08	3.559968890135932181e-13
9.000000000000062061e-07	1.810574890439957896e+00	-3.607702279564546189e-07	4.175123552310395034e-13	1.837282792685392963e+00	1.020853823393118430e-07	3.596432548921188371e-13
9.100000000000061104e-07	1.806879296812152091e+00	-3.943559884419448372e-07	4.232108633319681669e-13	1.834131846878118033e+00	1.098207927831993145e-07	3.633496785040551902e-13
9.200000000000060147e-07	1.803189640878924971e+00	-4.267486826459862525e-07	4.290082020700157747e-13	1.830985767699299993e+00	1.175845062236860341e-07	3.671173576145870867e-13
9.300000000000059189e-07	1.799506050289920056e+00	-4.564688107392805444e-07	4.349055761847743981e-13	1.827844374949940898e+00	1.253471164597039591e-07	3.709475129895653890e-13
9.400000000000058232e-07	1.795828680326968962e+00	-4.815097887618530909e-07	4.409041958077093824e-13	1.824707515437052008e+00	1.329624034863121107e-07	3.748413889160160175e-13
9.500000000000057274e-07	1.792157711863521019e+00	1.295778184822878324e-06	4.470052773489621423e-13	1.821575061184504962e+00	1.538472082199465056e-07	3.788002537290668744e-13
9.600000000000056317e-07	1.788493349456486081e+00	1.474732399849223948e-06	4.532100444830298686e-13	1.818446907780439936e+00	1.653575496576042419e-07	3.828254003491754999e-13
9.700000000000055359e-07	1.784835819559196013e+00	1.648000049667797181e-06	4.595197292519725855e-13	1.815322972849235050e+00	1.785990265893517456e-07	3.869181468220920173e-13
9.800000000000054402e-07	1.781185368844105055e+00	1.810328082854651654e-06	4.659355732656257134e-13	1.812203194637143078e+00	1.943063012393387939e-07	3.910798368724012397e-13
9.900000000000053444e-07	1.777542262626170988e+00	1.955379596233746835e-06	4.724588290233797580e-13	1.809087530701775082e+00	2.134135696255382050e-07	3.953118404636729326e-13
1.000000000000005249e-06	1.773906783378011998e+00	2.075585064281271803e-06	4.790907613511741313e-13	1.805975956696481033e+00	2.372847677185128487e-07	3.996155543686555753e-13
1.010000000000005153e-06	1.770279229329078108e+00	2.161837908638639624e-06	4.858326489581264122e-13	1.802868465241564966e+00	2.676002369112908749e-07	4.039924027495038268e-13
1.020000000000005057e-06	1.766659913141773952e+00	2.203506274053668272e-06	4.926857861153859730e-13	1.799765064874967013e+00	3.066640985250080247e-07	4.084438377486885072e-13
1.030000000000004961e-06	1.763049160658171965e+00	2.188218849565323497e-06	4.996514844591954603e-13	1.796665779075742098e+00	3.574921878666350889e-07	4.129713400910285328e-13
1.040000000000004866e-06	1.759447309711585916e+00	2.101822666237983429e-06	5.067310749199350531e-13	1.793570645354241933e+00	4.238629706085411451e-07	4.175764196975049242e-13
1.050000000000004770e-06	1.755854708997844016e+00	1.928280661303340996e-06	5.139259097784019833e-13	1.790479714403516942e+00	5.107456065695146588e-07	4.222606163113667569e-13
1.060000000000004674e-06	1.752271717001524065e+00	1.650147429648496134e-06	5.212373648503301116e-13	1.787393049306797987e+00	6.240559215587253431e-07	4.270255001372148711e-13
1.070000000000004578e-06	1.748698700973019049e+00	1.248628356055849273e-06	5.286668417996120217e-13	1.784310724796535075e+00	7.710485554711927405e-07	4.318726724936326322e-13
1.080000000000004483e-06	1.745136035952743025e+00	3.402627845411076459e-06	5.362157706411238961e-13	1.781232826560704030e+00	-3.409573728524666529e-06	4.368037664863063259e-13
1.090000000000004387e-06	1.741584103838268893e+00	4.538007083106993783e-06	5.438856120777103725e-13	1.778159450592800006e+00	-4.295422292256124514e-06	4.418204476662109131e-13
1.100000000000004291e-06	1.738043292493232972e+00	5.948516177970759487e-06	5.516778605345342542e-13	1.775090702581362034e+00	-5.384240064676662127e-06	4.469244147601797438e-13
1.110000000000004196e-06	1.734513994892801003e+00	7.682944759162748069e-06	5.595940467686088971e-13	1.772026697336616996e+00	-6.700898049252689085e-06	4.521174003637575814e-13
1.120000000000004100e-06	1.730996608305026108e+00	9.796035454768565472e-06	5.676357408702806172e-13	1.768967558250746031e+00	-8.264342761140116417e-06	4.574011716768792571e-13
1.130000000000004004e-06	1.727491533505109977e+00	1.234890743803553528e-05	5.758045553361338834e-13	1.765913416789210988e+00	-1.008380923913305879e-05	4.627775312525374429e-13
1.140000000000003908e-06	1.723999174020794944e+00	1.541175224897816802e-05	5.841021482626517530e-13	1.762864412010689996e+00	-1.215638152593861922e-05	4.682483177641876008e-13
1.150000000000003813e-06	1.720519935407039958e+00	1.906654445394707231e-05	5.925302266579643168e-13	1.759820690113313990e+00	-1.446646341396784912e-05	4.738154067926933567e-13
1.160000000000003717e-06	1.717054224548445029e+00	2.341096688366264342e-05	6.010905498687725526e-13	1.756782404005102993e+00	-1.698825812207738320e-05	4.794807116337816526e-13
1.170000000000003621e-06	1.713602448987993077e+00	2.856258497990842480e-05	6.097849331190932246e-13	1.753749712896687019e+00	-1.969166667595173320e-05	4.852461841268901398e-13
1.180000000000003525e-06	1.710165016280899009e+00	3.466244750478751353e-05	6.186152511573593950e-13	1.750722781914539894e+00	-2.255109599705990191e-05	4.911138155063992395e-13
1.190000000000003430e-06	1.706742333372430975e+00	4.187777533267431681e-05	6.275834420080098401e-13	1.747701781733095094e+00	-2.555468072123095300e-05	4.970856372762271075e-13
1.200000000000003334e-06	1.703334805998760082e+00	5.040330440542888123e-05	6.366915108237044037e-13	1.744686888224225907e+00	-2.871238241526211435e-05	5.031637221089240685e-13
1.210000000000003238e-06	1.699942838109985921e+00	6.046263329628672736e-05	6.459415338338725689e-13	1.741678282122750998e+00	-3.206097482951059932e-05	5.093501847702202233e-13
1.220000000000003142e-06	1.696566831314574975e+00	7.230930309040088275e-05	6.553356623855507298e-13	1.738676148706651103e+00	-3.566504489287757409e-05	5.156471830703335383e-13
1.230000000000003047e-06	1.693207184344599048e+00	8.622993794801589039e-05	6.648761270720082454e-13	1.735680677490859969e+00	-3.961466559317704044e-05	5.220569188430572508e-13
1.240000000000002951e-06	1.689864292541169100e+00	1.025492706491358986e-04	6.745652419448169539e-13	1.732692061933531980e+00	-4.402218886151570694e-05	5.285816389539259232e-13
1.250000000000002855e-06	1.686538547359387907e+00	1.356141974799902525e-04	6.844054087704016384e-13	1.729710499153485959e+00	-7.590143349284108392e-06	5.352236363151650445e-13
1.260000000000002759e-06	1.683230335893727947e+00	1.182335389836881433e-04	6.943991215088553960e-13	1.726736189659954013e+00	-3.463325948229375046e-05	5.419852510465146205e-13
1.270000000000002664e-06	1.679940040419992009e+00	1.410351447849394026e-04	7.045489706398058598e-13	1.723769337088153053e+00	-4.162656615106649573e-05	5.488688714482106678e-13
1.280000000000002568e-06	1.676668037958501944e+00	1.676923042711575247e-04	7.148576476658737249e-13	1.720810147948586000e+00	-4.979803006764525259e-05	5.558769352199791297e-13
1.290000000000002472e-06	1.673414699854133936e+00	1.987884126674189622e-04	7.253279497295769955e-13	1.717858831381352980e+00	-5.931015734171588200e-05	5.630119306166699973e-13
1.300000000000002376e-06	1.670180391374938900e+00	2.349485163380678296e-04	7.359627842164641694e-13	1.714915598919249051e+00	-7.034885830880212233e-05	5.702763976578204365e-13
1.310000000000002281e-06	1.666965471328681891e+00	2.768012691343164173e-04	7.467651734334001936e-13	1.711980664257702012e+00	-8.312626248624155377e-05	5.776729293768873450e-13
1.320000000000002185e-06	1.663770291697159953e+00	3.249204315415753414e-04	7.577382593383813699e-13	1.709054243031169928e+00	-9.788654165222543640e-05	5.852041731107185291e-13
1.330000000000002089e-06	1.660595197288166958e+00	3.797341016303963797e-04	7.688853083184722401e-13	1.706136552595518996e+00	-1.149088965703544760e-04	5.928728318308837439e-13
1.340000000000001993e-06	1.657440525404968890e+00	4.414066211226745965e-04	7.802097160133163661e-13	1.703227811815885895e+00	-1.345125741650428375e-04	6.006816655184616952e-13
1.350000000000001898e-06	1.654306605533172991e+00	5.096879207233134422e-04	7.917150121811460387e-13	1.700328240859650064e+00	-1.570556928881004853e-04	6.086334925838208401e-13
1.360000000000001802e-06	1.651193759044891074e+00	5.837437210100951184e-04	8.034048656052997035e-13	1.697438060994123976e+00	-1.829333418706325298e-04	6.167311913331298335e-13
1.370000000000001706e-06	1.648102298920073983e+00	6.619817342650758957e-04	8.152830890389253037e-13	1.694557494388591046e+00	-2.125684838156368067e-04	6.249777014832301718e-13
1.380000000000001610e-06	1.645032529484943939e+00	7.419031300607419359e-04	8.273536441860639177e-13	1.691686763920436931e+00	-2.463957479602922281e-04	6.333760257264914675e-13
1.390000000000001515e-06	1.641984746163793973e+00	9.705599919420916872e-04	8.396206465518975989e-13	1.688826092985246996e+00	-2.754946757411676542e-04	6.419292313548760737e-13
1.400000000000001419e-06	1.638959235265248893e+00	1.139217307024499234e-03	8.520883711372116678e-13	1.685975705309552097e+00	-3.179149323419083002e-04	6.506404519053458162e-13
1.410000000000001323e-06	1.635956273751342005e+00	1.334920254277699231e-03	8.647612566032956463e-13	1.683135824768452027e+00	-3.668143863905182970e-04	6.595128889159296797e-13
1.420000000000001227e-06	1.632976129055808912e+00	1.560527867840195244e-03	8.776439109668588233e-13	1.680306675204970901e+00	-4.232832852740818562e-04	6.685498136896373907e-13
1.430000000000001132e-06	1.630019058903251050e+00	1.818728077245477517e-03	8.907411166084427618e-13	1.677488480252971037e+00	-4.885759246427659897e-04	6.777545691382797376e-13
1.440000000000001036e-06	1.627085311147635105e+00	2.111946980859769670e-03	9.040578354484662172e-13	1.674681463162750905e+00	-5.641137166218374846e-04	6.871305716825389905e-13
1.450000000000000940e-06	1.624175123626963035e+00	2.442287776715529150e-03	9.175992141526008385e-13	1.671885846629314054e+00	-6.514817894813495222e-04	6.966813132133342933e-13
1.460000000000000844e-06	1.621288724033927098e+00	2.811515567697361884e-03	9.313705893661063702e-13	1.669101852623170901e+00	-7.524186666094540834e-04	7.064103631163079429e-13
1.470000000000000749e-06	1.618426329802383101e+00	3.221103529105880103e-03	9.453774929761342917e-13	1.666329702223650067e+00	-8.687949359161059983e-04	7.163213703607642061e-13
1.480000000000000653e-06	1.615588148009361014e+00	3.672361022054458374e-03	9.596256574011495932e-13	1.663569615454554063e+00	-1.002583978161015327e-03	7.264180656543529389e-13
1.490000000000000557e-06	1.612774375292477025e+00	4.166646469835206743e-03	9.741210209065027464e-13	1.660821811122199954e+00	-1.155823380607547482e-03	7.367042636649986888e-13
1.500000000000000462e-06	1.609985197782394906e+00	4.705658587464575833e-03	9.888697329446114100e-13	1.658086506655723991e+00	-1.330569158287180868e-03	7.471838653110203976e-13
1.510000000000000366e-06	1.607220791050141040e+00	5.291789946356800084e-03	1.003878159518133959e-12	1.655363917949685959e+00	-1.528845435136411742e-03	7.578608601206793461e-13
1.520000000000000270e-06	1.604481320068950945e+00	5.928495122252941049e-03	1.019152888563857065e-12	1.652654259208917065e+00	-1.752592840811891331e-03	7.687393286620461341e-13
1.530000000000000174e-06	1.601766939190349959e+00	6.620604620754099584e-03	1.034700735354681278e-12	1.649957742795630011e+00	-2.003623052692797991e-03	7.798234450439478401e-13
1.540000000000000079e-06	1.599077792134153908e+00	7.374487108686165852e-03	1.050528747916185678e-12	1.647274579078819023e+00	-2.283582763670537544e-03	7.911174794886849130e-13
1.549999999999999983e-06	1.596414011992018933e+00	8.197926265219590558e-03	1.066644212453762497e-12	1.644604976285928943e+00	-2.593936769767893336e-03	8.026258009768691860e-13
1.559999999999999887e-06	1.593775721245273891e+00	9.021098299864719824e-03	1.083054658862483536e-12	1.641949140356840031e+00	-2.937616947888218970e-03	8.143528799626615044e-13
1.569999999999999791e-06	1.591163031791293037e+00	9.864748412277466946e-03	1.099767865921091429e-12	1.639307274800319014e+00	-3.314735472637392408e-03	8.263032911670692716e-13
1.579999999999999696e-06	1.588576044987153990e+00	1.084102054020739947e-02	1.116791866829052558e-12	1.636679580552830027e+00	-3.723918984558863797e-03	8.384817164409209381e-13
1.589999999999999600e-06	1.586014851706746054e+00	1.188024339064181444e-02	1.134134954844849521e-12	1.634066255839697890e+00	-4.167618156834232770e-03	8.508929476913113533e-13
1.599999999999999504e-06	1.583479532402668921e+00	1.297238919426318103e-02	1.151805688383809215e-12	1.631467496039024967e+00	-4.646723336064005790e-03	8.635418898916322457e-13
1.609999999999999408e-06	1.580970157184212965e+00	1.409694867347445306e-02	1.169812896444544980e-12	1.628883493548108907e+00	-5.162303986332191300e-03	8.764335641541255202e-13
1.619999999999999313e-06	1.578486785904873901e+00	1.521918050659419250e-02	1.188165683897815951e-12	1.626314437652560008e+00	-5.715746423929180670e-03	8.895731108723668409e-13
1.629999999999999217e-06	1.576029468260123911e+00	1.628630220901578288e-02	1.206873436709563949e-12	1.623760514398195021e+00	-6.308876526302220275e-03	9.029657929300617958e-13
1.639999999999999121e-06	1.573598243894966053e+00	1.722414508558468837e-02	1.225945827081957717e-12	1.621221906465790896e+00	-6.944039608654672610e-03	9.166169989742625885e-13
1.649999999999999025e-06	1.571193142520783015e+00	1.793499032225923800e-02	1.245392818494093844e-12	1.618698793048765960e+00	-7.624099283676383232e-03	9.305322467501840383e-13
1.659999999999998930e-06	1.568814184041037896e+00	1.829753945027059320e-02	1.265224670623407178e-12	1.616191349733919980e+00	-8.352313664162573995e-03	9.447171864947794936e-13
