# wavelength [m]	effective refractive index	transmission [dB/m]	effective mode area [m]	effective refractive index	transmission [dB/m]	effective mode area [m]	
5.500000000000095572e-07	2.001909821605996065e+00	-2.147557268014701491e-12	7.211473328494771918e-13	2.004069810548687158e+00	-6.593589052563106204e-12	7.218928056492068375e-13
5.600000000000094614e-07	1.999266084238489061e+00	-5.303318902313040376e-12	7.244875719382143779e-13	2.001535339237586975e+00	-3.938313373405410185e-12	7.247970833249644243e-13
5.700000000000093657e-07	1.996699477664090061e+00	-6.166391984879372142e-12	7.278632965600051145e-13	1.999080999349925891e+00	-4.550661314667346358e-12	7.277159184172845920e-13
5.800000000000092699e-07	1.994203434028755106e+00	-7.106129101036986432e-12	7.312750978898572983e-13	1.996700233427382010e+00	-5.177956331660962134e-12	7.306497550814797356e-13
5.900000000000091742e-07	1.991771995057243005e+00	-8.096975572922223647e-12	7.347235596422840061e-13	1.994387092555079066e+00	-5.859735850515001375e-12	7.335990228115699626e-13
6.000000000000090785e-07	1.989399745736182945e+00	-9.126877307203174842e-12	7.382092589631361691e-13	1.992136170054717992e+00	-6.526568293637551654e-12	7.365641378716990499e-13
6.100000000000089827e-07	1.987081756342059080e+00	-1.010181237589070662e-11	7.417327672312997213e-13	1.989942543522789098e+00	-7.191472081827092209e-12	7.395455045855270625e-13
6.200000000000088870e-07	1.984813531624961991e+00	-1.598951372294948785e-11	7.452946507808858686e-13	1.987801724024601979e+00	3.492794083854601349e-12	7.425435164999193892e-13
6.300000000000087912e-07	1.982590966147840028e+00	-2.011297796994848538e-11	7.488954715527035752e-13	1.985709611443867040e+00	7.530433186308089763e-12	7.455585574373245504e-13
6.400000000000086955e-07	1.980410304936613075e+00	-2.499826091553280912e-11	7.525357876834515690e-13	1.983662455143172965e+00	1.295091787579133588e-11	7.485910024492664616e-13
6.500000000000085997e-07	1.978268108725812935e+00	2.168608536554884804e-10	7.562161540475932341e-13	1.981656819219955956e+00	-3.657597647905364646e-11	7.516412186818648471e-13
6.600000000000085040e-07	1.976161223191724048e+00	3.361433396232029759e-10	7.599371227051839342e-13	1.979689551749947096e+00	-5.317639165220674370e-11	7.547095661632046555e-13
6.700000000000084082e-07	1.974086751654648086e+00	4.620382190250987027e-10	7.636992433937349004e-13	1.977757757499692959e+00	-7.435398714549441494e-11	7.577963985203775532e-13
6.800000000000083125e-07	1.972042030807116930e+00	9.929004893759110617e-11	7.675030638818311253e-13	1.975858773664957102e+00	5.434178139487085084e-11	7.609020636344937583e-13
6.900000000000082168e-07	1.970024609087948964e+00	1.197347555554717837e-10	7.713491303773800333e-13	1.973990148254884947e+00	6.921942554864332755e-11	7.640269042391420640e-13
7.000000000000081210e-07	1.968032227375307031e+00	1.440020562505484239e-10	7.752379878027235533e-13	1.972149620795081049e+00	8.657346263642500817e-11	7.671712584693891667e-13
7.100000000000080253e-07	1.966062801716919939e+00	1.724391089107022830e-10	7.791701801313389984e-13	1.970335105067757109e+00	1.062573148832737239e-10	7.703354603649467061e-13
7.200000000000079295e-07	1.964114407853903010e+00	1.822858566712757661e-10	7.831462506521630550e-13	1.968544673645373111e+00	3.376447974885099995e-10	7.735198403333218268e-13
7.300000000000078338e-07	1.962185267326993054e+00	2.130700823846551435e-10	7.871667422206510955e-13	1.966776544006578975e+00	3.789806943389062556e-10	7.767247255756216269e-13
7.400000000000077380e-07	1.960273734981839988e+00	2.468051501453027051e-10	7.912321974838669371e-13	1.965029066051114048e+00	4.246830659570375572e-10	7.799504404807638901e-13
7.500000000000076423e-07	1.958378287713677057e+00	2.827003114306274824e-10	7.953431590891896385e-13	1.963300710853963071e+00	4.761029351232593047e-10	7.831973069886396672e-13
7.600000000000075466e-07	1.956497514311978048e+00	3.207005995749864576e-10	7.995001698727002494e-13	1.961590060519381895e+00	5.323473346034496614e-10	7.864656449269559235e-13
7.700000000000074508e-07	1.954630106283306024e+00	3.605051444087847673e-10	8.037037730309856682e-13	1.959895799013009032e+00	5.969379883047911990e-10	7.897557723236246587e-13
7.800000000000073551e-07	1.952774849545481084e+00	4.006308102885508732e-10	8.079545122773758141e-13	1.958216703865168995e+00	6.671448851695192721e-10	7.930680056970049537e-13
7.900000000000072593e-07	1.950930616899333003e+00	-1.347088324786536977e-09	8.122529319841373068e-13	1.956551638651657932e+00	-2.203324716725043944e-08	7.964026603290157536e-13
8.000000000000071636e-07	1.949096361195508109e+00	-1.560637677998784475e-09	8.165995773099146146e-13	1.954899546169466040e+00	-2.951322340975883141e-08	7.997600505062803223e-13
8.100000000000070678e-07	1.947271109123571931e+00	3.319350145594881355e-10	8.209949943173303589e-13	1.953259442234684951e+00	-2.109099888699238440e-10	8.031404897675169599e-13
8.200000000000069721e-07	1.945453955559182102e+00	3.718543143616934693e-10	8.254397300785586820e-13	1.951630410038357022e+00	-2.290600782825758978e-10	8.065442911279260824e-13
8.300000000000068763e-07	1.943644058412453912e+00	4.130609913312582571e-10	8.299343327676044550e-13	1.950011595003463993e+00	-2.483533779069679777e-10	8.099717672680501365e-13
8.400000000000067806e-07	1.941840633927186976e+00	4.536398911197715313e-10	8.344793517463182465e-13	1.948402200092623104e+00	-2.666587240419010925e-10	8.134232307408241158e-13
8.500000000000066849e-07	1.940042952386205055e+00	1.793890169618703423e-10	8.390753376401034432e-13	1.946801481521815980e+00	2.254385464700431857e-10	8.168989941494207059e-13
8.600000000000065891e-07	1.938250334182995083e+00	1.849464361513838258e-10	8.437228424017413321e-13	1.945208744840325910e+00	2.128396081201602286e-10	8.203993703259641093e-13
8.700000000000064934e-07	1.936462146224303016e+00	-4.210832315655720443e-10	8.484224193736754174e-13	1.943623341341534028e+00	7.420303125985247250e-09	8.239246724787596118e-13
8.800000000000063976e-07	1.934677798632010060e+00	-4.763404010492233456e-09	8.531746233395293643e-13	1.942044664772976104e+00	5.994189223977520183e-07	8.274752143484148353e-13
8.900000000000063019e-07	1.932896741716104927e+00	-5.409954236930822215e-09	8.579800105616003335e-13	1.940472148317037959e+00	3.554730733969363378e-07	8.310513104399764863e-13
9.000000000000062061e-07	1.931118463193467027e+00	-6.162967662414123088e-09	8.628391388255399617e-13	1.938905261818212988e+00	2.716711412012898690e-07	8.346532759700187657e-13
9.100000000000061104e-07	1.929342485629846005e+00	-2.429806274267623860e-10	8.677525674692802377e-13	1.937343509232515082e+00	1.804729210342313164e-10	8.382814271812255487e-13
9.200000000000060147e-07	1.927568364084716102e+00	1.792192953277639485e-10	8.727208574006763197e-13	1.935786426280375006e+00	3.399784699573868673e-10	8.419360813561746747e-13
9.300000000000059189e-07	1.925795683940785930e+00	7.289360962339226322e-10	8.777445711281334225e-13	1.934233578283717003e+00	5.619030071221180474e-10	8.456175570170429952e-13
9.400000000000058232e-07	1.924024058901711021e+00	1.433231696928329880e-09	8.828242727668149130e-13	1.932684558171456901e+00	8.634597777934436930e-10	8.493261739883969760e-13
9.500000000000057274e-07	1.922253129143280947e+00	2.313505488134718654e-09	8.879605280489358220e-13	1.931138984638266942e+00	1.266512978597617678e-09	8.530622535211934522e-13
9.600000000000056317e-07	1.920482559604687056e+00	3.392006433037078998e-09	8.931539043274592060e-13	1.929596500443407026e+00	1.798842955151430709e-09	8.568261183981412542e-13
9.700000000000055359e-07	1.918712038407887954e+00	4.686759740473130493e-09	8.984049705750231959e-13	1.928056770837595080e+00	2.492951400321521579e-09	8.606180930350478970e-13
9.800000000000054402e-07	1.916941275394129063e+00	6.207878312376760378e-09	9.037142973785284768e-13	1.926519482106987979e+00	3.388711326086438852e-09	8.644385035783344004e-13
9.900000000000053444e-07	1.915170000767814962e+00	7.949474929337588070e-09	9.090824569294122520e-13	1.924984340224481061e+00	4.531578236065136771e-09	8.682876779992096804e-13
1.000000000000005249e-06	1.913397963838769922e+00	9.894898548763360203e-09	9.145100230099388749e-13	1.923451069599346974e+00	5.979785937032961246e-09	8.721659461845610581e-13
1.010000000000005153e-06	1.911624931854809972e+00	1.198374562669729723e-08	9.199975709755905555e-13	1.921919411917160980e+00	7.792281837954557115e-09	8.760736400249677107e-13
1.020000000000005057e-06	1.909850688917241968e+00	1.413174455023285222e-08	9.255456777338120898e-13	1.920389125062625046e+00	1.004764126882244256e-08	8.800110934999984213e-13
1.030000000000004961e-06	1.908075034972630979e+00	1.619157501276866154e-08	9.311549217192208875e-13	1.918859982118626961e+00	1.283360838486994533e-08	8.839786427610155696e-13
1.040000000000004866e-06	1.906297784874722012e+00	1.796031551514222569e-08	9.368258828654805082e-13	1.917331770435451110e+00	1.624907882371193041e-08	8.879766262117239640e-13
1.050000000000004770e-06	1.904518767511016009e+00	1.915005259326427123e-08	9.425591425739247479e-13	1.915804290764604012e+00	2.041458194468787199e-08	8.920053845865118740e-13
1.060000000000004674e-06	1.902737824988868010e+00	1.937084308037219834e-08	9.483552836791642123e-13	1.914277356452170897e+00	2.546684587901271181e-08	8.960652610269392858e-13
1.070000000000004578e-06	1.900954811876566009e+00	1.812733221001800836e-08	9.542148904118185584e-13	1.912750792687132995e+00	3.156966260692567136e-08	9.001566011563910542e-13
1.080000000000004483e-06	1.899169594495125901e+00	-1.234999247255568583e-07	9.601385483013124735e-13	1.911224435800412902e+00	4.349153496822198795e-08	9.042797531516516532e-13
1.090000000000004387e-06	1.897382050256996022e+00	-1.501780193736581019e-07	9.661268443549132234e-13	1.909698132610774923e+00	5.402427816948424897e-08	9.084350678199921084e-13
1.100000000000004291e-06	1.895592067048045948e+00	-1.822147138636549219e-07	9.721803666896322510e-13	1.908171739814114920e+00	6.685260091594707274e-08	9.126228986608493776e-13
1.110000000000004196e-06	1.893799542649706957e+00	-2.204325579874077806e-07	9.782997046937869188e-13	1.906645123412815002e+00	8.240361731470605369e-08	9.168436019401555771e-13
1.120000000000004100e-06	1.892004384198272993e+00	-2.657206025804267725e-07	9.844854489263916376e-13	1.905118158182306010e+00	1.011756724730975937e-07	9.210975367565639274e-13
1.130000000000004004e-06	1.890206507678571901e+00	-3.190342119767231620e-07	9.907381910653142811e-13	1.903590727172030039e+00	1.237405411605336004e-07	9.253850651079380394e-13
1.140000000000003908e-06	1.888405837449605107e+00	-3.814015631144751455e-07	9.970585238534684509e-13	1.902062721238358955e+00	1.507779054009639846e-07	9.297065519568549868e-13
1.150000000000003813e-06	1.886602305799784052e+00	-4.539311620120247664e-07	1.003447041043168212e-12	1.900534038607160969e+00	1.830551672331873141e-07	9.340623652951968826e-13
1.160000000000003717e-06	1.884795852529685067e+00	-5.378367287537915536e-07	1.009904337338832307e-12	1.899004584463890977e+00	2.214815185377543211e-07	9.384528762078775127e-13
1.170000000000003621e-06	1.882986424560362915e+00	-6.344463596058995491e-07	1.016431008338066921e-12	1.897474270569283084e+00	2.670968753626310002e-07	9.428784589358249897e-13
1.180000000000003525e-06	1.881173975565431977e+00	-7.452402120237522295e-07	1.023027650471478601e-12	1.895943014898834100e+00	3.211203131733714217e-07	9.473394909382858612e-13
1.190000000000003430e-06	1.879358465625263097e+00	-8.718924090913328737e-07	1.029694860941062427e-12	1.894410741304443979e+00	3.849410233593868777e-07	9.518363529544381511e-13
1.200000000000003334e-06	1.877539860901749957e+00	-1.016291124139233057e-06	1.036433237657580237e-12	1.892877379196669096e+00	4.601719095445610952e-07	9.563694290644866035e-13
1.210000000000003238e-06	1.875718133332276105e+00	-1.180582126514462332e-06	1.043243379176938406e-12	1.891342863246203931e+00	5.486486665984024772e-07	9.609391067501785388e-13
1.220000000000003142e-06	1.873893260341525036e+00	-1.367177330482573457e-06	1.050125884635702486e-12	1.889807133103273973e+00	6.524419966626789514e-07	9.655457769549267166e-13
1.230000000000003047e-06	1.872065224569980035e+00	-1.578779989424464482e-06	1.057081353685990871e-12	1.888270133133745921e+00	7.739021146921325980e-07	9.701898341434041043e-13
1.240000000000002951e-06	1.870234013617962043e+00	-1.818349073293422641e-06	1.064110386429812079e-12	1.886731812170844957e+00	9.156043062711035051e-07	9.748716763608583412e-13
1.250000000000002855e-06	1.868399619804218093e+00	-1.257223106705926544e-06	1.071213583543862194e-12	1.885192123281421051e+00	9.545501987960910206e-07	9.795917052926352193e-13
1.260000000000002759e-06	1.866562039937887940e+00	-1.512217167854210934e-06	1.078391545454827820e-12	1.883651023545886094e+00	1.140169632898775080e-06	9.843503263205786280e-13
1.270000000000002664e-06	1.864721275103526033e+00	-1.816467413107645763e-06	1.085644873402391719e-12	1.882108473850808039e+00	1.359467141059095148e-06	9.891479485845771538e-13
1.280000000000002568e-06	1.862877330457566094e+00	-2.178803029299224637e-06	1.092974168626534125e-12	1.880564438693469009e+00	1.618003658949406346e-06	9.939849850387572299e-13
1.290000000000002472e-06	1.861030215036090008e+00	-2.712507484799142035e-06	1.100380032483103161e-12	1.879018885997576938e+00	1.994646095025950078e-06	9.988618525205480731e-13
1.300000000000002376e-06	1.859179941572929984e+00	-3.224005617004953777e-06	1.107863066392266705e-12	1.877471786939352016e+00	2.358852522772579511e-06	1.003778971764637529e-12
1.310000000000002281e-06	1.857326526327427008e+00	-3.826551891073631727e-06	1.115423871753003603e-12	1.875923115783495909e+00	2.785772432888932303e-06	1.008736767528342440e-12
1.320000000000002185e-06	1.855469988921347957e+00	-4.534390691484111893e-06	1.123063049892922122e-12	1.874372849728237034e+00	3.284932898927401337e-06	1.013735668602765086e-12
1.330000000000002089e-06	1.853610352184307031e+00	-5.363500464200115313e-06	1.130781202001844978e-12	1.872820968759028926e+00	3.867042329276664798e-06	1.018776107882178811e-12
1.340000000000001993e-06	1.851747642007159023e+00	-6.331629441024439484e-06	1.138578929070122581e-12	1.871267455510297939e+00	4.543989689236510449e-06	1.023858522421502334e-12
1.350000000000001898e-06	1.849881887202905029e+00	-7.458416983354926194e-06	1.146456831828175956e-12	1.869712295134760893e+00	5.328905256118795028e-06	1.028983353493638756e-12
1.360000000000001802e-06	1.848013119374632085e+00	-8.765505636982384456e-06	1.154415510687706930e-12	1.868155475179885006e+00	6.236249459521713484e-06	1.034151046646889890e-12
1.370000000000001706e-06	1.846141372790025992e+00	-1.027652333731831334e-05	1.162455565684642672e-12	1.866596985470982961e+00	7.281751222096738553e-06	1.039362051762319905e-12
1.380000000000001610e-06	1.844266684262118039e+00	-1.201724213861038981e-05	1.170577596424039318e-12	1.865036818000642027e+00	8.482538335122147586e-06	1.044616823111176319e-12
1.390000000000001515e-06	1.842389093035813108e+00	-1.401554530932066532e-05	1.178782202027148474e-12	1.863474966824022028e+00	9.857055165129248678e-06	1.049915819412339070e-12
1.400000000000001419e-06	1.840508640679914043e+00	-1.630156278465341182e-05	1.187069981080876198e-12	1.861911427959733079e+00	1.142513061840332235e-05	1.055259503889806332e-12
1.410000000000001323e-06	1.838625370984275031e+00	-1.890769972046950028e-05	1.195441531589742302e-12	1.860346199295934033e+00	1.320793810994372796e-05	1.060648344330286569e-12
1.420000000000001227e-06	1.836739329861776016e+00	-2.186870587440587730e-05	1.203897450930739033e-12	1.858779280501356101e+00	1.522800651541582177e-05	1.066082813140858831e-12
1.430000000000001132e-06	1.834850565254863008e+00	-2.522176853999859338e-05	1.212438335811033586e-12	1.857210672940976082e+00	1.750926969969827840e-05	1.071563387406734040e-12
1.440000000000001036e-06	1.832959127046343895e+00	-2.900668258564187169e-05	1.221064782228984191e-12	1.855640379596041001e+00	2.007700302713703413e-05	1.077090548949131375e-12
1.450000000000000940e-06	1.831065066974226108e+00	-3.326599095596364988e-05	1.229777385438518837e-12	1.854068404988238106e+00	2.295797123341753343e-05	1.082664784383254831e-12
1.460000000000000844e-06	1.829168438550311082e+00	-3.804527336997224056e-05	1.238576739917140591e-12	1.852494755107715108e+00	2.618039040354160061e-05	1.088286585176452335e-12
1.470000000000000749e-06	1.827269296982392044e+00	-4.339345448868630565e-05	1.247463439337764275e-12	1.850919437344807017e+00	2.977407598823636351e-05	1.093956447706471394e-12
1.480000000000000653e-06	1.825367699099776919e+00	-4.936326135425612316e-05	1.256438076544615144e-12	1.849342460425180024e+00	3.377053197309744638e-05	1.099674873319869641e-12
1.490000000000000557e-06	1.823463703281994031e+00	-5.601177048116579612e-05	1.265501243533368063e-12	1.847763834348268075e+00	3.820307056559695837e-05	1.105442368390633178e-12
1.500000000000000462e-06	1.821557369390466086e+00	-6.340109053424878367e-05	1.274653531435808722e-12	1.846183570328777002e+00	4.310710518083623487e-05	1.111259444378884593e-12
1.510000000000000366e-06	1.819648758703005909e+00	-7.159911905718811614e-05	1.283895530509122898e-12	1.844601680741104088e+00	4.852023178784818858e-05	1.117126617889819176e-12
1.520000000000000270e-06	1.817737933850948950e+00	-8.068046855810880979e-05	1.293227830130082969e-12	1.843018179066510109e+00	5.448264229916375027e-05	1.123044410732836817e-12
1.530000000000000174e-06	1.815824958758780028e+00	-9.072744760938648671e-05	1.302651018794412178e-12	1.841433079842877962e+00	6.103738438428060883e-05	1.129013349980763172e-12
1.540000000000000079e-06	1.813909898586133940e+00	-1.015852937314446006e-04	1.312165684121620285e-12	1.839846398616937106e+00	6.817333586803066606e-05	1.135033968031422315e-12
1.549999999999999983e-06	1.811992819671977006e+00	-1.137630311442796075e-04	1.321772412863637069e-12	1.838258151898851001e+00	7.604641831230170507e-05	1.141106802659218600e-12
1.559999999999999887e-06	1.810073789480939999e+00	-1.271859489220182561e-04	1.331471790923551924e-12	1.836668357118895090e+00	8.466203027834191006e-05	1.147232397086917392e-12
1.569999999999999791e-06	1.808152876551581967e+00	-1.419552794159514278e-04	1.341264403375083497e-12	1.835077032586333035e+00	9.407222331358828691e-05	1.153411300037769371e-12
1.579999999999999696e-06	1.806230150446541005e+00	-1.581982278823981108e-04	1.351150834491013222e-12	1.833484197450198971e+00	1.043404397453919223e-04	1.159644065797808368e-12
1.589999999999999600e-06	1.804305681704432063e+00	-1.760486307680994198e-04	1.361131667777309342e-12	1.831889871661950941e+00	1.155340519714131981e-04	1.165931254276250304e-12
1.599999999999999504e-06	1.802379541793420969e+00	-1.956494773794726185e-04	1.371207486013789219e-12	1.830294075939892018e+00	1.277260388116924835e-04	1.172273431066125357e-12
1.609999999999999408e-06	1.800451803066374090e+00	-2.171517166193572608e-04	1.381378871301206429e-12	1.828696831735272976e+00	1.409954263182733140e-04	1.178671167505096948e-12
1.619999999999999313e-06	1.798522538717471031e+00	-2.407122379781162394e-04	1.391646405115381615e-12	1.827098161199959048e+00	1.554275223033388181e-04	1.185125040736546078e-12
1.629999999999999217e-06	1.796591822740227995e+00	-2.664905459105667835e-04	1.402010668368103457e-12	1.825498087155603022e+00	1.711138972112399544e-04	1.191635633770762903e-12
1.639999999999999121e-06	1.794659729886856070e+00	-2.946445583427637267e-04	1.412472241475236373e-12	1.823896633064248096e+00	1.881520646748819563e-04	1.198203535546343691e-12
1.649999999999999025e-06	1.792726335628848977e+00	-3.253247041973483192e-04	1.423031704432088468e-12	1.822293823000266100e+00	2.066449175542484236e-04	1.204829340991814767e-12
1.659999999999998930e-06	1.790791716118776078e+00	-3.586669346588002775e-04	1.433689636896145345e-12	1.820689681623580913e+00	2.266997376393146664e-04	1.211513651087404284e-12
