# wavelength [m]	effective refractive index	transmission [dB/m]	effective mode area [m]	effective refractive index	transmission [dB/m]	effective mode area [m]	
5.500000000000095572e-07	1.992858865295191961e+00	0.000000000000000000e+00	4.680765857404988985e-13	1.993695322795048019e+00	-4.821637332766435678e-16	4.673106552032707190e-13
5.600000000000094614e-07	1.989923454197227048e+00	-4.821637332766435678e-16	4.706821335173860576e-13	1.990801298186855917e+00	0.000000000000000000e+00	4.697958796529184300e-13
5.700000000000093657e-07	1.987062126980952970e+00	-9.643274665532871356e-16	4.733156209489947744e-13	1.987982430194140004e+00	-3.375146132936506257e-15	4.723040127414145711e-13
5.800000000000092699e-07	1.984268370499199907e+00	-1.928654933106574666e-15	4.759776084675748817e-13	1.985232206127206078e+00	1.928654933106573877e-15	4.748355663519545235e-13
5.900000000000091742e-07	1.981536280689133012e+00	3.857309866213146965e-15	4.786686520335352313e-13	1.982544721914518915e+00	9.643274665532869384e-16	4.773910459562297807e-13
6.000000000000090785e-07	1.978860496267097924e+00	-1.928654933106574666e-15	4.813893039915139324e-13	1.979914615802168987e+00	-2.892982399659862393e-15	4.799709516142209194e-13
6.100000000000089827e-07	1.976236140769253025e+00	1.157192959863943064e-14	4.841401138461910684e-13	1.977337010399160100e+00	9.643274665532869384e-16	4.825757788789946526e-13
6.200000000000088870e-07	1.973658771748646013e+00	0.000000000000000000e+00	4.869216289672304530e-13	1.974807461879126924e+00	0.000000000000000000e+00	4.852060196176522147e-13
6.300000000000087912e-07	1.971124336128331045e+00	1.928654933106573877e-15	4.897343952314519885e-13	1.972321915338093978e+00	-9.643274665532871356e-16	4.878621627581798506e-13
6.400000000000086955e-07	1.968629130865805044e+00	-1.928654933106574666e-15	4.925789576092811121e-13	1.969876665463506926e+00	9.643274665532869384e-16	4.905446949706576985e-13
6.500000000000085997e-07	1.966169768213303914e+00	0.000000000000000000e+00	4.954558607016408129e-13	1.967468321799082043e+00	9.643274665532869384e-16	4.932541012901852543e-13
6.600000000000085040e-07	1.963743144965850895e+00	9.643274665532869384e-16	4.983656492326361366e-13	1.965093777997366953e+00	0.000000000000000000e+00	4.959908656880300972e-13
6.700000000000084082e-07	1.961346415178629066e+00	-2.892982399659862393e-15	5.013088685027435422e-13	1.962750184541550924e+00	5.785964799319719264e-15	4.987554715966316091e-13
6.800000000000083125e-07	1.958976965910421919e+00	-4.821637332766435678e-16	5.042860648066000184e-13	1.960434924493297038e+00	9.643274665532869384e-16	5.015484023934235793e-13
6.900000000000082168e-07	1.956632395612968978e+00	-9.643274665532882006e-15	5.072977858190753966e-13	1.958145591886407910e+00	1.157192959863943064e-14	5.043701418478990728e-13
7.000000000000081210e-07	1.954310494839369028e+00	-5.303801066043082106e-15	5.103445809527518022e-13	1.955879972439481085e+00	1.639356693140584798e-14	5.072211745357022755e-13
7.100000000000080253e-07	1.952009228989626921e+00	-2.266169546400230380e-14	5.134270016896730619e-13	1.953636026305632933e+00	2.314385919727882972e-14	5.101019862232314306e-13
7.200000000000079295e-07	1.949726722849755012e+00	-2.844766026332206645e-14	5.165456018898596462e-13	1.951411872615715914e+00	3.664444372902475535e-14	5.130130642257190865e-13
7.300000000000078338e-07	1.947461246713233951e+00	-5.303801066043111136e-14	5.197009380787740265e-13	1.949205775603821023e+00	5.785964799319684396e-14	5.159548977414556744e-13
7.400000000000077380e-07	1.945211203901423103e+00	-9.016461812273328248e-14	5.228935697157239207e-13	1.947016132131665023e+00	9.064678185600802873e-14	5.189279781645963597e-13
7.500000000000076423e-07	1.942975119523238980e+00	-1.513994122488686983e-13	5.261240594449284722e-13	1.944841460452183979e+00	1.822578911785674180e-13	5.219327993785535838e-13
7.600000000000075466e-07	1.940751630334683897e+00	-2.618149071692253342e-13	5.293929733308315450e-13	1.942680390072915042e+00	2.950842047652958667e-13	5.249698580319817555e-13
7.700000000000074508e-07	1.938539475576416926e+00	-4.460014532809181925e-13	5.327008810790109489e-13	1.940531652597361045e+00	5.159151946059779879e-13	5.280396537988994017e-13
7.800000000000073551e-07	1.936337488682472019e+00	-7.189061263155350386e-13	5.360483562439585959e-13	1.938394073437446075e+00	8.283572937691946587e-13	5.311426896245687052e-13
7.900000000000072593e-07	1.934144589766396916e+00	-2.310046446129013855e-12	5.394359764248214026e-13	1.936266564303344095e+00	2.450356092511211445e-12	5.342794719583891554e-13
8.000000000000071636e-07	1.931959778802236904e+00	-2.948431228987675861e-12	5.428643234501157088e-13	1.934148116388096916e+00	3.506294668386336249e-12	5.374505109750373987e-13
8.100000000000070678e-07	1.929782129427632054e+00	-4.508713069872234114e-12	5.463339835522814709e-13	1.932037794174310985e+00	5.417591707092988039e-12	5.406563207849622881e-13
8.200000000000069721e-07	1.927610783304767983e+00	-6.984623840251075463e-12	5.498455475329207778e-13	1.929934729798659099e+00	8.209319722760373599e-12	5.438974196351261282e-13
8.300000000000068763e-07	1.925444944982314111e+00	-1.058011879930227605e-11	5.533996109194047903e-13	1.927838117917334948e+00	1.247261145238230615e-11	5.471743301009666182e-13
8.400000000000067806e-07	1.923283877207986992e+00	-1.605171284454240499e-11	5.569967741135385536e-13	1.925747211022108107e+00	1.883524407667796006e-11	5.504875792702714685e-13
8.500000000000066849e-07	1.921126896647012972e+00	-2.411445479243172477e-11	5.606376425328392464e-13	1.923661315162231933e+00	2.803299945261358083e-11	5.538376989197453127e-13
8.600000000000065891e-07	1.918973369966646914e+00	-3.592601976659130790e-11	5.643228267449996797e-13	1.921579786032409976e+00	4.144100854746324720e-11	5.572252256848698121e-13
8.700000000000064934e-07	1.916822710251419037e+00	-9.391826278730654122e-11	5.680529425959968850e-13	1.919502025391446098e+00	1.089381452402254340e-10	5.606507012236604771e-13
8.800000000000063976e-07	1.914674373717411004e+00	-1.391886157058655234e-10	5.718286113322870468e-13	1.917427477779922951e+00	1.602702606107324952e-10	5.641146723748313344e-13
8.900000000000063019e-07	1.912527856697388895e+00	-2.036428170816314286e-10	5.756504597175098628e-13	1.915355627508720016e+00	2.342447848941417936e-10	5.676176913108491899e-13
9.000000000000062061e-07	1.910382692871487986e+00	-2.965803588397900358e-10	5.795191201440405945e-13	1.913285995893083014e+00	3.388367062370770347e-10	5.711603156863275283e-13
9.100000000000061104e-07	1.908238450720858959e+00	-4.280905171019665796e-10	5.834352307397448338e-13	1.911218138709646075e+00	4.867163232189683865e-10	5.747431087821186092e-13
9.200000000000060147e-07	1.906094731183904933e+00	-6.127331901274497720e-10	5.873994354702308305e-13	1.909151643856044966e+00	6.929907899240332898e-10	5.783666396455029107e-13
9.300000000000059189e-07	1.903951165496942100e+00	-8.698363933389720461e-10	5.914123842368885697e-13	1.907086129194969004e+00	9.791752164454238898e-10	5.820314832267790438e-13
9.400000000000058232e-07	1.901807413202782016e+00	-1.224480355506519213e-09	5.954747329709732872e-13	1.905021240566137086e+00	1.372235091706136171e-09	5.857382205125661507e-13
9.500000000000057274e-07	1.899663160312528021e+00	-1.709314793865542596e-09	5.995871437239594010e-13	1.902956649951506041e+00	1.906927670539008994e-09	5.894874386560731377e-13
9.600000000000056317e-07	1.897518117607194021e+00	-2.367214189809494917e-09	6.037502847544209310e-13	1.900892053780314894e+00	2.628591773031995115e-09	5.932797311046114143e-13
9.700000000000055359e-07	1.895372019067129932e+00	-3.251169302070942448e-09	6.079648306116010757e-13	1.898827171361969990e+00	3.594291476878325399e-09	5.971156977245826710e-13
9.800000000000054402e-07	1.893224620418350046e+00	-4.429973323666524449e-09	6.122314622159003591e-13	1.896761743435843917e+00	4.876033113762494464e-09	6.009959449241103244e-13
9.900000000000053444e-07	1.891075697785931098e+00	-5.989334233689742582e-09	6.165508669364508648e-13	1.894695530828188978e+00	6.563989980339258728e-09	6.049210857735671633e-13
1.000000000000005249e-06	1.888925046445510070e+00	-8.036056121304944566e-09	6.209237386659383167e-13	1.892628313207179946e+00	8.769580471396983203e-09	6.088917401241455103e-13
1.010000000000005153e-06	1.886772479664825974e+00	-1.070385552702335668e-08	6.253507778928457843e-13	1.890559887928040972e+00	1.163069762753224143e-08	6.129085347246378174e-13
1.020000000000005057e-06	1.884617827627907971e+00	-1.415640534259938762e-08	6.298326917712821859e-13	1.888490068960857027e+00	1.531708815348160477e-08	6.169721033365894562e-13
1.030000000000004961e-06	1.882460936435228049e+00	-1.859686815276833646e-08	6.343701941885063583e-13	1.886418685894408087e+00	2.003499469012367892e-08	6.210830868479824352e-13
1.040000000000004866e-06	1.880301667173746027e+00	-2.427249704219586626e-08	6.389640058303528838e-13	1.884345583009932934e+00	2.603719446274130461e-08	6.252421333855372846e-13
1.050000000000004770e-06	1.878139895051289976e+00	-3.148756626344152481e-08	6.436148542445885507e-13	1.882270618419300989e+00	3.363021823544002142e-08	6.294498984258171853e-13
1.060000000000004674e-06	1.875975508590195018e+00	-4.061233803735486949e-08	6.483234739024899523e-13	1.880193663262476056e+00	4.318505338018786600e-08	6.337070449051892725e-13
1.070000000000004578e-06	1.873808408875599074e+00	-5.209918900353864513e-08	6.530906062585973910e-13	1.878114600959728930e+00	5.515189808475793203e-08	6.380142433288110329e-13
1.080000000000004483e-06	1.871638508854188920e+00	-6.649816482575261124e-08	6.579169998089269053e-13	1.876033326514342958e+00	7.007462626131383690e-08	6.423721718787040969e-13
1.090000000000004387e-06	1.869465732679491898e+00	-8.447863175947095252e-08	6.628034101476770763e-13	1.873949745861950955e+00	8.861045210699617869e-08	6.467815165210424525e-13
1.100000000000004291e-06	1.867290015100248946e+00	-1.068522450111198467e-07	6.677506000225538995e-13	1.871863775263012064e+00	1.115504625568095732e-07	6.512429711126997096e-13
1.110000000000004196e-06	1.865111300888540047e+00	-1.346019716311044270e-07	6.727593393889314253e-13	1.869775340735134961e+00	1.398474853719006753e-07	6.557572375072244467e-13
1.120000000000004100e-06	1.862929544304797957e+00	-1.689144090014419687e-07	6.778304054628626060e-13	1.867684377522357053e+00	1.746445927145113493e-07	6.603250256602310184e-13
1.130000000000004004e-06	1.860744708596884900e+00	-2.112162075090385448e-07	6.829645827731357347e-13	1.865590829598581912e+00	2.173095700451663183e-07	6.649470537343749547e-13
1.140000000000003908e-06	1.858556765530807953e+00	-2.632127902582514469e-07	6.881626632125067327e-13	1.863494649202732001e+00	2.694694245469410510e-07	6.696240482039429416e-13
1.150000000000003813e-06	1.856365694950725898e+00	-3.269303717635981893e-07	6.934254460882095725e-13	1.861395796403287006e+00	3.330511500915876845e-07	6.743567439591348309e-13
1.160000000000003717e-06	1.854171484366134992e+00	-4.047604612542314970e-07	6.987537381718979130e-13	1.859294238690105017e+00	4.103200726882074742e-07	6.791458844101368352e-13
1.170000000000003621e-06	1.851974128564310984e+00	-4.994971918933937279e-07	7.041483537491769819e-13	1.857189950591586980e+00	5.039183878061910837e-07	6.839922215910381115e-13
1.180000000000003525e-06	1.849773629246171947e+00	-6.143736755840418219e-07	7.096101146688345544e-13	1.855082913315363902e+00	6.169008220382123983e-07	6.888965162636669697e-13
1.190000000000003430e-06	1.847569994683935013e+00	-7.530886441536310576e-07	7.151398503919107773e-13	1.852973114410886968e+00	7.527588761170308608e-07	6.938595380214285963e-13
1.200000000000003334e-06	1.845363239399010924e+00	-9.198179998396293841e-07	7.207383980408424110e-13	1.850860547452356064e+00	9.154373831504865533e-07	6.988820653932049766e-13
1.210000000000003238e-06	1.843153383858749050e+00	-1.116833160493376208e-06	7.264066024487294526e-13	1.848745211740614902e+00	1.104411094231078396e-06	7.039648859473633661e-13
1.220000000000003142e-06	1.840940454190699960e+00	-1.359201592959083229e-06	7.321453162089126583e-13	1.846627112022672046e+00	1.333633942574320013e-06	7.091087963960556669e-13
1.230000000000003047e-06	1.838724481913214914e+00	-1.657960061956472053e-06	7.379553997250646202e-13	1.844506258227676998e+00	1.617684413638892479e-06	7.143146026997328805e-13
1.240000000000002951e-06	1.836505503681240103e+00	-2.018758571068418461e-06	7.438377212620469348e-13	1.842382665218200044e+00	1.958827620825478097e-06	7.195831201719331992e-13
1.250000000000002855e-06	1.834283561046267996e+00	-2.453478454339871415e-06	7.497931569974730801e-13	1.840256352555805108e+00	2.367724505180297381e-06	7.249151735846692802e-13
1.260000000000002759e-06	1.832058700229517889e+00	-2.975911582789777800e-06	7.558225910743809993e-13	1.838127344279959940e+00	2.856691909155195371e-06	7.303115972741929592e-13
1.270000000000002664e-06	1.829830971907407955e+00	-3.602010388871581209e-06	7.619269156551018238e-13	1.835995668699377026e+00	3.439962868629354031e-06	7.357732352473664170e-13
1.280000000000002568e-06	1.827600431008526094e+00	-4.349793961167204155e-06	7.681070309766007006e-13	1.833861358194956992e+00	4.133578335321252897e-06	7.413009412886960380e-13
1.290000000000002472e-06	1.825367136521319100e+00	-5.240083379140465992e-06	7.743638454073936233e-13	1.831724449033617974e+00	4.956013628063405874e-06	7.468955790680992420e-13
1.300000000000002376e-06	1.823131151311794040e+00	-6.296288139017384961e-06	7.806982755063196656e-13	1.829584981192222015e+00	5.928022035161713231e-06	7.525580222494619424e-13
1.310000000000002281e-06	1.820892541950537957e+00	-7.544681712230285066e-06	7.871112460834008546e-13	1.827442998190996981e+00	7.072854762483354783e-06	7.582891546001435475e-13
1.320000000000002185e-06	1.818651378548489017e+00	-9.014544540467173443e-06	7.936036902629447836e-13	1.825298546935806954e+00	8.416385548511611385e-06	7.640898701014200114e-13
1.330000000000002089e-06	1.816407734600844037e+00	-1.073830559210679489e-05	8.001765495491912685e-13	1.823151677568727091e+00	9.987225750641495623e-06	7.699610730600418421e-13
1.340000000000001993e-06	1.814161686838571041e+00	-1.275166719289662400e-05	8.068307738947130758e-13	1.821002443326334985e+00	1.181680810640027438e-05	7.759036782209391767e-13
1.350000000000001898e-06	1.811913315087047893e+00	-1.509369941517600085e-05	8.135673217718081126e-13	1.818850900405281967e+00	1.393946511022485673e-05	7.819186108812208407e-13
1.360000000000001802e-06	1.809662702131354051e+00	-1.780696520430531083e-05	8.203871602471552030e-13	1.816697107834656988e+00	1.639249340611640792e-05	7.880068070054714304e-13
1.370000000000001706e-06	1.807409933587752038e+00	-2.093762758877991130e-05	8.272912650600189056e-13	1.814541127354670103e+00	1.921621320884560186e-05	7.941692133426282382e-13
1.380000000000001610e-06	1.805155097781008910e+00	-2.453560489667487536e-05	8.342806207041783605e-13	1.812383023301328056e+00	2.245404536899058291e-05	8.004067875443054403e-13
1.390000000000001515e-06	1.802898285627118957e+00	-2.865476232874201293e-05	8.413562205139897172e-13	1.810222862496646989e+00	2.615260776527830985e-05	8.067204982848991666e-13
1.400000000000001419e-06	1.800639590521128985e+00	-3.335319509173317090e-05	8.485190667547360268e-13	1.808060714144110070e+00	3.036185886568412137e-05	8.131113253834026702e-13
1.410000000000001323e-06	1.798379108229690049e+00	-3.869358610576504004e-05	8.557701707176210401e-13	1.805896649728998993e+00	3.513530139570699107e-05	8.195802599272131105e-13
1.420000000000001227e-06	1.796116936788050955e+00	-4.474371012805748070e-05	8.631105528197093261e-13	1.803730742923298935e+00	4.053028250110511644e-05	8.261283043979233896e-13
1.430000000000001132e-06	1.793853176401212002e+00	-5.157709181901164039e-05	8.705412427090452568e-13	1.801563069494916958e+00	4.660838904910331556e-05	8.327564727992462597e-13
1.440000000000001036e-06	1.791587929348942954e+00	-5.927382965467373774e-05	8.780632793753411226e-13	1.799393707220888095e+00	5.343599589335301273e-05	8.394657907872754787e-13
1.450000000000000940e-06	1.789321299894429007e+00	-6.792158511336403954e-05	8.856777112664628834e-13	1.797222735804379079e+00	6.108492957873714625e-05	8.462572958031256151e-13
1.460000000000000844e-06	1.787053394196304046e+00	-7.761680372572019753e-05	8.933855964110673683e-13	1.795050236795183052e+00	6.963331874631877028e-05	8.531320372081269032e-13
1.470000000000000749e-06	1.784784320223856025e+00	-8.846604059082225106e-05	9.011880025477192923e-13	1.792876293513552932e+00	7.916658061015197805e-05	8.600910764217208562e-13
1.480000000000000653e-06	1.782514187675177997e+00	-1.005874261183045730e-04	9.090860072607591056e-13	1.790700990977103890e+00	8.977853576110569347e-05	8.671354870621557918e-13
1.490000000000000557e-06	1.780243107898100030e+00	-1.141121746630452112e-04	9.170806981233157758e-13	1.788524415830625047e+00	1.015726357340140658e-04	8.742663550902508633e-13
1.500000000000000462e-06	1.777971193813681960e+00	-1.291859777786991299e-04	9.251731728477006838e-13	1.786346656278605005e+00	1.146632079404026454e-04	8.814847789561309532e-13
1.510000000000000366e-06	1.775698559842131985e+00	-1.459702155749851768e-04	9.333645394435922846e-13	1.784167802020300009e+00	1.291766583737779920e-04	8.887918697494331605e-13
1.520000000000000270e-06	1.773425321830969903e+00	-1.646426831328736740e-04	9.416559163842678052e-13	1.781987944187167994e+00	1.452524935860615470e-04	8.961887513528275644e-13
1.530000000000000174e-06	1.771151596985286902e+00	-1.853976690545144413e-04	9.500484327812743660e-13	1.779807175282543064e+00	1.630440008943542720e-04	9.036765605991790162e-13
1.540000000000000079e-06	1.768877503799967998e+00	-2.084450498993202722e-04	9.585432285678047852e-13	1.777625589123380978e+00	1.827184307883349709e-04	9.112564474325439316e-13
1.549999999999999983e-06	1.766603161993743010e+00	-2.340080616059858425e-04	9.671414546911327874e-13	1.775443280783955968e+00	2.044563953396997202e-04	9.189295750729808774e-13
1.559999999999999887e-06	1.764328692444939062e+00	-2.623194440658006311e-04	9.758442733144202334e-13	1.773260346541380095e+00	2.284503135162708836e-04	9.266971201855915746e-13
1.569999999999999791e-06	1.762054217128824041e+00	-2.936154572185810841e-04	9.846528580282200943e-13	1.771076883822817916e+00	2.549014984922773818e-04	9.345602730537984743e-13
1.579999999999999696e-06	1.759779859056435969e+00	-3.281275326881036942e-04	9.935683940719580996e-13	1.768892991154292993e+00	2.840157461233169768e-04	9.425202377570395519e-13
1.589999999999999600e-06	1.757505742214773958e+00	-3.660711069462183596e-04	1.002592078565745257e-12	1.766708768110972105e+00	3.159969844258554770e-04	9.505782323532014160e-13
1.599999999999999504e-06	1.755231991508291900e+00	-4.076314237695561086e-04	1.011725120752792258e-12	1.764524315268833021e+00	3.510388120076861568e-04	9.587354890657891166e-13
1.609999999999999408e-06	1.752958732701592970e+00	-4.529461143503259440e-04	1.020968742252683258e-12	1.762339734157641002e+00	3.893136454516117183e-04	9.669932544760875120e-13
1.619999999999999313e-06	1.750686092363215041e+00	-5.020846117140863665e-04	1.030324177325856574e-12	1.760155127215099036e+00	4.309593388307308526e-04	9.753527897205866226e-13
1.629999999999999217e-06	1.748414197810473913e+00	-5.550246069690377383e-04	1.039792673149532432e-12	1.757970597742132934e+00	4.760632314796843642e-04	9.838153706936758179e-13
1.639999999999999121e-06	1.746143177055264895e+00	-6.116261997863904360e-04	1.049375490105304635e-12	1.755786249859220050e+00	5.246437919587947519e-04	9.923822882559061245e-13
1.649999999999999025e-06	1.743873158751900077e+00	-6.756502742358973072e-04	1.059073902127303436e-12	1.753602188462940026e+00	5.729811608690206547e-04	1.001054848417240823e-12
1.659999999999998930e-06	1.741604272141759946e+00	-7.540892738891072453e-04	1.068889196890991832e-12	1.751418519185999001e+00	6.289676350325992295e-04	1.009834372632778573e-12
