# wavelength [m]	effective refractive index	transmission [dB/m]	effective mode area [m]	effective refractive index	transmission [dB/m]	effective mode area [m]	
5.500000000000095572e-07	1.987355236874992048e+00	0.000000000000000000e+00	4.053549886048462578e-13	1.987552007860424963e+00	0.000000000000000000e+00	4.051419500731591301e-13
5.600000000000094614e-07	1.984248306789077043e+00	0.000000000000000000e+00	4.078233072599668415e-13	1.984454510344471068e+00	0.000000000000000000e+00	4.075840091901031290e-13
5.700000000000093657e-07	1.981213951092070991e+00	0.000000000000000000e+00	4.103194274789223487e-13	1.981429821161104998e+00	0.000000000000000000e+00	4.100529204705249943e-13
5.800000000000092699e-07	1.978245695101922053e+00	0.000000000000000000e+00	4.128439367595152129e-13	1.978471465370466031e+00	0.000000000000000000e+00	4.125492596044297517e-13
5.900000000000091742e-07	1.975337672886176899e+00	0.000000000000000000e+00	4.153974194266296025e-13	1.975573576654414021e+00	0.000000000000000000e+00	4.150735986611429750e-13
6.000000000000090785e-07	1.972484560967020961e+00	9.643274665532869384e-16	4.179804574892565714e-13	1.972730831023459031e+00	-9.643274665532871356e-16	4.176265069954588751e-13
6.100000000000089827e-07	1.969681520372549066e+00	2.892982399659860421e-15	4.205936314207853357e-13	1.969938388869916013e+00	1.928654933106573877e-15	4.202085520707933035e-13
6.200000000000088870e-07	1.966924145844830996e+00	0.000000000000000000e+00	4.232375208713932892e-13	1.967191844177796911e+00	0.000000000000000000e+00	4.228203002090797764e-13
6.300000000000087912e-07	1.964208421204280963e+00	0.000000000000000000e+00	4.259127053202127386e-13	1.964487179888988022e+00	0.000000000000000000e+00	4.254623172758340555e-13
6.400000000000086955e-07	1.961530680025511009e+00	0.000000000000000000e+00	4.286197646739854528e-13	1.961820728580867979e+00	-4.821637332766435678e-16	4.281351693077704713e-13
6.500000000000085997e-07	1.958887570909169096e+00	9.643274665532869384e-16	4.313592798180357850e-13	1.959189137739858033e+00	-4.821637332766435678e-16	4.308394230893614505e-13
6.600000000000085040e-07	1.956276026741589957e+00	9.643274665532869384e-16	4.341318331247114935e-13	1.956589339022754004e+00	-9.643274665532871356e-16	4.335756466839630492e-13
6.700000000000084082e-07	1.953693237423776985e+00	2.892982399659860421e-15	4.369380089237742038e-13	1.954018520987341967e+00	-1.928654933106574666e-15	4.363444099244214585e-13
6.800000000000083125e-07	1.951136625626431087e+00	4.821637332766433114e-15	4.397783939387170884e-13	1.951474104849018065e+00	-3.857309866213150120e-15	4.391462848674972254e-13
6.900000000000082168e-07	1.948603825190833971e+00	8.678947198979574557e-15	4.426535776924731775e-13	1.948953722883216999e+00	-6.750292265873014880e-15	4.419818462158928618e-13
7.000000000000081210e-07	1.946092661848690009e+00	1.639356693140584798e-14	4.455641528856277401e-13	1.946455199146766013e+00	-1.253625706519275071e-14	4.448516717112325504e-13
7.100000000000080253e-07	1.943601135978991090e+00	2.892982399659851664e-14	4.485107157498203462e-13	1.943976532236215027e+00	-2.217953173072566111e-14	4.477563425009732918e-13
7.200000000000079295e-07	1.941127407158323992e+00	5.207368319387718860e-14	4.514938663788012889e-13	1.941515879839571079e+00	-3.953742612868495222e-14	4.506964434818654008e-13
7.300000000000078338e-07	1.938669780293355904e+00	8.871812692290150850e-14	4.545142090392297042e-13	1.939071544870184960e+00	-6.750292265873061896e-14	4.536725636222528497e-13
7.400000000000077380e-07	1.936226693152123923e+00	1.533280671819699553e-13	4.575723524631904658e-13	1.936641962999386957e+00	-1.171657871862259794e-13	4.566852962653335140e-13
7.500000000000076423e-07	1.933796705134410043e+00	2.632613983690393746e-13	4.606689101240571514e-13	1.934225691428195892e+00	-2.015444405096416828e-13	4.597352394151671679e-13
7.600000000000075466e-07	1.931378487141754974e+00	4.416619796813830236e-13	4.638045004972791086e-13	1.931821398758627906e+00	-3.404075956933237109e-13	4.628229960070874613e-13
7.700000000000074508e-07	1.928970812425345960e+00	7.386748393797551056e-13	4.669797473074238625e-13	1.929427855842847039e+00	-6.542961860564545886e-13	4.659491741639636244e-13
7.800000000000073551e-07	1.926572548304809063e+00	2.173594109610565408e-12	4.701952797626780224e-13	1.927043927503202081e+00	-1.668768680870783948e-12	4.691143874396502633e-13
7.900000000000072593e-07	1.924182648664225947e+00	3.494722738787706392e-12	4.734517327779260392e-13	1.924668565029459932e+00	-2.689991467951227237e-12	4.723192550507326318e-13
8.000000000000071636e-07	1.921800147142763926e+00	4.835137917295490280e-12	4.767497471873555146e-13	1.922300799370628921e+00	-3.742072733961642430e-12	4.755644020976838485e-13
8.100000000000070678e-07	1.919424150947194097e+00	1.322189389389199188e-11	4.800899699475087358e-13	1.919939734948655108e+00	-1.012543839882131772e-11	4.788504597763290974e-13
8.200000000000069721e-07	1.917053835222022107e+00	2.048135106207697221e-11	4.834730543315137106e-13	1.917584544029709903e+00	-1.572528799711292074e-11	4.821780655804598433e-13
8.300000000000068763e-07	1.914688437920377018e+00	3.140814558552698915e-11	4.868996601152965383e-13	1.915234461596224014e+00	-2.417617175029147390e-11	4.855478634964026252e-13
8.400000000000067806e-07	1.912327255125277903e+00	4.798107742556030772e-11	4.903704537563397649e-13	1.912888780669284916e+00	-3.703692500807002346e-11	4.889605041901926010e-13
8.500000000000066849e-07	1.909969636776555069e+00	7.251067519193598970e-11	4.938861085656186184e-13	1.910546848036672962e+00	-5.611662609776470912e-11	4.924166451879809119e-13
8.600000000000065891e-07	1.907614982763579992e+00	1.085408423240154369e-10	4.974473048732706846e-13	1.908208060346711976e+00	-8.425473724477782072e-11	4.959169510502452609e-13
8.700000000000064934e-07	1.905262739348472900e+00	1.626010400973051510e-10	5.010547301884182683e-13	1.905871860532569073e+00	-1.265409788178989667e-10	4.994620935403199851e-13
8.800000000000063976e-07	1.902912395888082031e+00	2.404444461762739915e-10	5.047090793536584078e-13	1.903537734535345027e+00	-1.876624644689237023e-10	5.030527517877038448e-13
8.900000000000063019e-07	1.900563481826567092e+00	3.525831942716998873e-10	5.084110546945700158e-13	1.901205208297747085e+00	-2.759938960824533845e-10	5.066896124465605310e-13
9.000000000000062061e-07	1.898215563933278949e+00	5.126673396683979632e-10	5.121613661646661737e-13	1.898873845003069993e+00	-4.025025699382615428e-10	5.103733698498266946e-13
9.100000000000061104e-07	1.895868243763328964e+00	7.391087866768738864e-10	5.159607314860462394e-13	1.896543242536860019e+00	-5.820362360441696990e-10	5.141047261592477880e-13
9.200000000000060147e-07	1.893521155320502025e+00	1.056454490941960144e-09	5.198098762861975051e-13	1.894213031150929094e+00	-8.344860770631252116e-10	5.178843915116817988e-13
9.300000000000059189e-07	1.891173962904312944e+00	1.497122248875796810e-09	5.237095342310845389e-13	1.891882871311520109e+00	-1.186231753026267244e-09	5.217130841619889448e-13
9.400000000000058232e-07	1.888826359124730958e+00	2.103518360762192263e-09	5.276604471549192025e-13	1.889552451715138970e+00	-1.671899370312443356e-09	5.255915306227570401e-13
9.500000000000057274e-07	1.886478063069841005e+00	2.930499558757406665e-09	5.316633651868068286e-13	1.887221487457340974e+00	-2.336515307058879619e-09	5.295204658011274881e-13
9.600000000000056317e-07	1.884128818613060030e+00	4.048455961763973091e-09	5.357190468745052450e-13	1.884889718341077103e+00	-3.238081449685103194e-09	5.335006331329622199e-13
9.700000000000055359e-07	1.881778392847891057e+00	5.546921517403358730e-09	5.398282593055671519e-13	1.882556907312590955e+00	-4.450715525329559853e-09	5.375327847145869487e-13
9.800000000000054402e-07	1.879426574639293079e+00	7.538963620540266592e-09	5.439917782259920723e-13	1.880222839013945046e+00	-6.068383049215251093e-09	5.416176814323012798e-13
9.900000000000053444e-07	1.877073173281857077e+00	1.016634515804157018e-08	5.482103881567072561e-13	1.877887318442372999e+00	-8.209409895145324191e-09	5.457560930898516654e-13
1.000000000000005249e-06	1.874718017255800007e+00	1.360575020662613624e-08	5.524848825079404450e-13	1.875550169707455916e+00	-1.102191049500123899e-08	5.499487985340924785e-13
1.010000000000005153e-06	1.872360953072716994e+00	1.807638100420757153e-08	5.568160636917679328e-13	1.873211234878090936e+00	-1.469033272956264070e-08	5.541965857789464801e-13
1.020000000000005057e-06	1.870001844203700969e+00	2.384894740984379384e-08	5.612047432329998829e-13	1.870870372911827006e+00	-1.944342472035767143e-08	5.585002521279212535e-13
1.030000000000004961e-06	1.867640570083137108e+00	3.125684152933073331e-08	5.656517418785294256e-13	1.868527458659916984e+00	-2.556394801883682801e-08	5.628606042952622853e-13
1.040000000000004866e-06	1.865277025182106030e+00	4.070927185360563288e-08	5.701578897053872653e-13	1.866182381941990043e+00	-3.340016322986306676e-08	5.672784585259786702e-13
1.050000000000004770e-06	1.862911118145837985e+00	5.270810523533002051e-08	5.747240262276049942e-13	1.863835046684799046e+00	-4.338075973142205796e-08	5.717546407148202987e-13
1.060000000000004674e-06	1.860542770990115002e+00	6.786736944355408024e-08	5.793510005021077416e-13	1.861485370119946969e+00	-5.603201877776376496e-08	5.762899865244382650e-13
1.070000000000004578e-06	1.858171918352055085e+00	8.693736616587218275e-08	5.840396712338002407e-13	1.859133282036018908e+00	-7.199911549758965241e-08	5.808853415028365373e-13
1.080000000000004483e-06	1.855798506791038971e+00	1.108332073774806370e-07	5.887909068799752579e-13	1.856778724080885956e+00	-9.207151301819818437e-08	5.855415612002624130e-13
1.090000000000004387e-06	1.853422494135887000e+00	1.406686535778866789e-07	5.936055857542623878e-13	1.854421649110282955e+00	-1.172131517114960792e-07	5.902595112857171093e-13
1.100000000000004291e-06	1.851043848874807107e+00	1.777950581345269739e-07	5.984845961302593844e-13	1.852062020579203994e+00	-1.485975010665229051e-07	5.950400676632107881e-13
1.110000000000004196e-06	1.848662549584803028e+00	2.238458574633569749e-07	6.034288363450564610e-13	1.849699811972769004e+00	-1.876478155629118961e-07	5.998841165879285216e-13
1.120000000000004100e-06	1.846278584397655909e+00	2.807852193746565258e-07	6.084392149027822983e-13	1.847335006273713054e+00	-2.360816861523279255e-07	6.047925547824548225e-13
1.130000000000004004e-06	1.843891950499662924e+00	3.509602786959312328e-07	6.135166505784133941e-13	1.844967595463659071e+00	-2.959595266943190336e-07	6.097662895532212273e-13
1.140000000000003908e-06	1.841502653662695055e+00	4.371545454876150465e-07	6.186620725220047775e-13	1.842597580055747031e+00	-3.697347576312833989e-07	6.148062389073574722e-13
1.150000000000003813e-06	1.839110707804239020e+00	5.426385272766964387e-07	6.238764203635372728e-13	1.840224968656283044e+00	-4.603031449439790796e-07	6.199133316700720777e-13
1.160000000000003717e-06	1.836716134574301051e+00	6.712152094428850822e-07	6.291606443186089059e-13	1.837849777553290931e+00	-5.710483657360020882e-07	6.250885076027372275e-13
1.170000000000003621e-06	1.834318962967240951e+00	8.272535296590197862e-07	6.345157052951525131e-13	1.835472030330022930e+00	-7.058783819042047283e-07	6.303327175219195740e-13
1.180000000000003525e-06	1.831919228956710111e+00	1.015102124447211273e-06	6.399425750013970483e-13	1.833091757501627006e+00	-8.682666706500546108e-07	6.356469234194775336e-13
1.190000000000003430e-06	1.829516975152057912e+00	1.247275226608517392e-06	6.454422360553800556e-13	1.830708996173306957e+00	-1.069912927900942683e-06	6.410320985838274583e-13
1.200000000000003334e-06	1.827112250474645094e+00	1.528158918610948228e-06	6.510156820960595739e-13	1.828323789718445003e+00	-1.314633015153522913e-06	6.464892277228584142e-13
1.210000000000003238e-06	1.824705109852680973e+00	1.864427856884615936e-06	6.566639178964357300e-13	1.825936187475279970e+00	-1.607602830415696207e-06	6.520193070883761123e-13
1.220000000000003142e-06	1.822295613933256897e+00	2.281920457857440128e-06	6.623879594790597665e-13	1.823546244460819032e+00	-1.972848860961331766e-06	6.576233446023430697e-13
1.230000000000003047e-06	1.819883828810358040e+00	2.787417386447553100e-06	6.681888342336444429e-13	1.821154021100793052e+00	-2.416310256774933494e-06	6.633023599854766190e-13
1.240000000000002951e-06	1.817469825767759950e+00	3.397788541530635796e-06	6.740675810377551601e-13	1.818759582974508016e+00	-2.953272266930593319e-06	6.690573848878821542e-13
1.250000000000002855e-06	1.815053681035730060e+00	4.132555461614665704e-06	6.800252503804279224e-13	1.816363000573568920e+00	-3.601497898060946510e-06	6.748894630224057116e-13
1.260000000000002759e-06	1.812635475560623988e+00	5.014147825681092563e-06	6.860629044890703747e-13	1.813964349073535987e+00	-4.381482222697694676e-06	6.807996503006821590e-13
1.270000000000002664e-06	1.810215294786436058e+00	6.068142300475305019e-06	6.921816174600516291e-13	1.811563708117571947e+00	-5.316701777444535010e-06	6.867890149722946009e-13
1.280000000000002568e-06	1.807793228447494016e+00	7.323489414403532623e-06	6.983824753932385672e-13	1.809161161611285040e+00	-6.433852305155067619e-06	6.928586377671920195e-13
1.290000000000002472e-06	1.805369370371550097e+00	8.812721230546891545e-06	7.046665765308127405e-13	1.806756797528014991e+00	-7.763074272902196923e-06	6.990096120417239124e-13
1.300000000000002376e-06	1.802943818292507050e+00	1.057213437999393160e-05	7.110350314006790738e-13	1.804350707723795022e+00	-9.338157579270534039e-06	7.052430439284586353e-13
1.310000000000002281e-06	1.800516673672160950e+00	1.264195292210032634e-05	7.174889629649212578e-13	1.801942987761369963e+00	-1.119673199256142264e-05	7.115600524902750735e-13
1.320000000000002185e-06	1.798088041530301995e+00	1.506647351064056308e-05	7.240295067735268843e-13	1.799533736742628953e+00	-1.338044137991648637e-05	7.179617698787405670e-13
1.330000000000002089e-06	1.795658030282643036e+00	1.789420953080283919e-05	7.306578111238994129e-13	1.797123057148904079e+00	-1.593511233203635842e-05	7.244493414973753812e-13
1.340000000000001993e-06	1.793226751585988987e+00	2.117803768362766490e-05	7.373750372264205110e-13	1.794711054688548968e+00	-1.891093477499680849e-05	7.310239261699607375e-13
1.350000000000001898e-06	1.790794320190183919e+00	2.497538514039732079e-05	7.441823593765972244e-13	1.792297838151351907e+00	-2.236265965939333297e-05	7.376866963142073619e-13
1.360000000000001802e-06	1.788360853796377992e+00	2.934847376787957311e-05	7.510809651340526742e-13	1.789883519269299894e+00	-2.634986267911765685e-05	7.444388381212282324e-13
1.370000000000001706e-06	1.785926472921117059e+00	3.436465015135125179e-05	7.580720555089271480e-13	1.787468212583219973e+00	-3.093727156417470394e-05	7.512815517410905790e-13
1.380000000000001610e-06	1.783491300765958965e+00	4.009687210761496233e-05	7.651568451560752081e-13	1.785052035314975916e+00	-3.619523194266210654e-05	7.582160514748144799e-13
1.390000000000001515e-06	1.781055463092116042e+00	4.662433279249955767e-05	7.723365625774555422e-13	1.782635107244745942e+00	-4.220030705313181768e-05	7.652435659732375017e-13
1.400000000000001419e-06	1.778619088099878010e+00	5.403332131176522880e-05	7.796124503332189336e-13	1.780217550593117037e+00	-4.903608127342881954e-05	7.723653384429926678e-13
1.410000000000001323e-06	1.776182306312414916e+00	6.241830423374436878e-05	7.869857652620408225e-13	1.777799489907599950e+00	-5.679418543790148315e-05	7.795826268601866190e-13
1.420000000000001227e-06	1.773745250463693912e+00	7.188116275070390330e-05	7.944577787110420747e-13	1.775381051953289990e+00	-6.557520830582227946e-05	7.868967041919236706e-13
1.430000000000001132e-06	1.771308055390204084e+00	8.253089349039756536e-05	8.020297767756753983e-13	1.772962365607392954e+00	-7.548240440251854564e-05	7.943088586265101161e-13
1.440000000000001036e-06	1.768870857926228002e+00	9.449635756192853626e-05	8.097030605506562164e-13	1.770543561757313977e+00	-8.664217829129649585e-05	8.018203938119305394e-13
1.450000000000000940e-06	1.766433796802415968e+00	1.079169817783481416e-04	8.174789463916346707e-13	1.768124773202093047e+00	-9.919010632876082293e-05	8.094326291040273428e-13
1.460000000000000844e-06	1.763997012547414034e+00	1.229478017209086147e-04	8.253587661886797882e-13	1.765706134556930040e+00	-1.132771101436956572e-04	8.171468998240425020e-13
1.470000000000000749e-06	1.761560647392347967e+00	1.397610521093701694e-04	8.333438676519388133e-13	1.763287782160605000e+00	-1.290710489587864045e-04	8.249645575263083383e-13
1.480000000000000653e-06	1.759124845177949981e+00	1.585471405126232230e-04	8.414356146099106404e-13	1.760869853985548961e+00	-1.467580520832576353e-04	8.328869702763122782e-13
1.490000000000000557e-06	1.756689751264131072e+00	1.795151055987030588e-04	8.496353873210508701e-13	1.758452489550422104e+00	-1.665431664965599009e-04	8.409155229398074844e-13
1.500000000000000462e-06	1.754255512441845966e+00	2.028917102642486398e-04	8.579445827989623366e-13	1.756035829834982076e+00	-1.886501641697906951e-04	8.490516174831303085e-13
1.510000000000000366e-06	1.751822276847059934e+00	2.289192019395414860e-04	8.663646151520536230e-13	1.753620017197101033e+00	-2.133198080782268728e-04	8.572966732853588878e-13
1.520000000000000270e-06	1.749390193876682043e+00	2.578507942321542259e-04	8.748969159378077339e-13	1.751205195291759109e+00	-2.408064755416294421e-04	8.656521274626924462e-13
1.530000000000000174e-06	1.746959414106308950e+00	2.899437464765810949e-04	8.835429345325775706e-13	1.748791508991881072e+00	-2.713723821657903091e-04	8.741194352054104660e-13
1.540000000000000079e-06	1.744530089209664903e+00	3.254491907739840198e-04	8.923041385170956165e-13	1.746379104310872954e+00	-3.052788387095051398e-04	8.827000701279366943e-13
1.549999999999999983e-06	1.742102371879586054e+00	3.645985075593322858e-04	9.011820140784796759e-13	1.743968128326742972e+00	-3.427743157073247118e-04	8.913955246323817911e-13
1.559999999999999887e-06	1.739676415750470939e+00	4.075855114052627775e-04	9.101780664290757569e-13	1.741558729107673953e+00	-3.840784929239805410e-04	9.002073102860017361e-13
1.569999999999999791e-06	1.737252375322057896e+00	4.545446937542250510e-04	9.192938202427415201e-13	1.739151055638963106e+00	-4.293624042671597600e-04	9.091369582129516573e-13
1.579999999999999696e-06	1.734830405884453919e+00	5.055250505107860334e-04	9.285308201090310395e-13	1.736745257751197924e+00	-4.787242216453071759e-04	9.181860195007965336e-13
1.589999999999999600e-06	1.732410663443477050e+00	5.628548578123161901e-04	9.378906309718721473e-13	1.734341486050354098e+00	-5.329957562442591383e-04	9.273560656521366630e-13
1.599999999999999504e-06	1.729993304650982999e+00	6.277448433060109183e-04	9.473748387473724065e-13	1.731939891845394985e+00	-5.956915403880308447e-04	9.366486889100572905e-13
1.609999999999999408e-06	1.727578486728797103e+00	6.989855040185569829e-04	9.569850506578100453e-13	1.729540627083610893e+00	-6.647480963644521700e-04	9.460655028669214218e-13
1.619999999999999313e-06	1.725166367399320055e+00	7.775525996307208754e-04	9.667228958212733793e-13	1.727143844281596952e+00	-7.390726936021655173e-04	9.556081428809441194e-13
1.629999999999999217e-06	1.722757104819516938e+00	8.705419927885890349e-04	9.765900259673184542e-13	1.724749696454884962e+00	-8.286795445443770640e-04	9.652782664189813179e-13
1.639999999999999121e-06	1.720350857505293929e+00	9.745678397777648733e-04	9.865881157416798863e-13	1.722358337057646072e+00	-9.290835189983209178e-04	9.750775537897246651e-13
1.649999999999999025e-06	1.717947784267066957e+00	1.090763361428264723e-03	9.967188634648762635e-13	1.719969919913810097e+00	-1.041432524640081717e-03	9.850077085195099093e-13
1.659999999999998930e-06	1.715548044141083972e+00	1.220298587191373085e-03	1.006983991706837331e-12	1.717584599153280100e+00	-1.166922431797252175e-03	9.950704579226912534e-13
