# wavelength [m]	effective refractive index	transmission [dB/m]	effective mode area [m]	effective refractive index	transmission [dB/m]	effective mode area [m]	
5.500000000000095572e-07	1.971665549660732042e+00	-1.411775411034241655e-12	3.257632851601203616e-13	1.974933240979600990e+00	1.556424531016726521e-12	3.218456546226811827e-13
5.600000000000094614e-07	1.968050014531091962e+00	-1.507725993956326217e-12	3.283660751364007899e-13	1.971471246573005986e+00	1.727110492596593754e-12	3.241055545126483143e-13
5.700000000000093657e-07	1.964501912706529074e+00	-1.933958734173047718e-12	3.310085831165015069e-13	1.968080161610070933e+00	2.135985338415005750e-12	3.263923271034903234e-13
5.800000000000092699e-07	1.961014896065496949e+00	-2.212649372007081123e-12	3.336916138265416186e-13	1.964753609978467930e+00	2.063660778423544002e-12	3.287065991957620133e-13
5.900000000000091742e-07	1.957583225786301062e+00	-2.594523048762393894e-12	3.364159735355193803e-13	1.961485822688393110e+00	2.317278902126930729e-12	3.310489967063505398e-13
6.000000000000090785e-07	1.954201706071583056e+00	-2.169254636012161099e-12	3.391824707828508169e-13	1.958271571622796969e+00	1.676965464335842428e-12	3.334201455942955446e-13
6.100000000000089827e-07	1.950865626219618898e+00	-5.766678249989039878e-13	3.419919170369290319e-13	1.955106111634191901e+00	-3.042453156975727426e-13	3.358206727091674826e-13
6.200000000000088870e-07	1.947570709852721960e+00	-4.821637332766703220e-13	3.448451272921810434e-13	1.951985129798295082e+00	-2.242061359736450531e-13	3.382512065713088651e-13
6.300000000000087912e-07	1.944313070302043034e+00	-7.275850735145160142e-13	3.477429206111665859e-13	1.948904700823832048e+00	-6.702075892545396681e-14	3.407123780919910091e-13
6.400000000000086955e-07	1.941089171303794991e+00	-1.026526588146095427e-12	3.506861206173632360e-13	1.945861247773561953e+00	3.018344970311683656e-13	3.432048212405395943e-13
6.500000000000085997e-07	1.937895792291183028e+00	-1.259893835052052469e-12	3.536755559436112439e-13	1.942851507380815912e+00	1.957584757103128703e-13	3.457291736645195369e-13
6.600000000000085040e-07	1.934729997673787061e+00	-1.223731555056293726e-12	3.567120606405801566e-13	1.939872499353334057e+00	1.986514581099725813e-13	3.482860772683851379e-13
6.700000000000084082e-07	1.931589109585758912e+00	-1.307145880913177532e-12	3.597964745490582042e-13	1.936921499145783931e+00	2.748333279676781173e-13	3.508761787552792447e-13
6.800000000000083125e-07	1.928470683659448959e+00	-1.366452020106222848e-12	3.629296436394585958e-13	1.933996013757639076e+00	-2.227596447738150336e-13	3.535001301361278296e-13
6.900000000000082168e-07	1.925372487444179104e+00	-1.620552307543101316e-12	3.661124203215026328e-13	1.931093760176139984e+00	-5.593099306009101793e-14	3.561585892096697515e-13
7.000000000000081210e-07	1.922292481143174969e+00	-1.329807576377186430e-12	3.693456637267452058e-13	1.928212646137408948e+00	-1.354880090507579663e-12	3.588522200166319241e-13
7.100000000000080253e-07	1.919228800386653111e+00	-1.347165470775151209e-12	3.726302399662921939e-13	1.925350752923749020e+00	-1.920940313374572923e-12	3.615816932709100335e-13
7.200000000000079295e-07	1.916179740797395059e+00	-2.217953173072617040e-13	3.759670223658048294e-13	1.922506319953491083e+00	-2.936859299389029040e-12	3.643476867702418013e-13
7.300000000000078338e-07	1.913143744137504987e+00	-1.504350847823153940e-13	3.793568916797090331e-13	1.919677730952159100e+00	-4.996662767948731809e-12	3.671508857886420352e-13
7.400000000000077380e-07	1.910119385852895091e+00	6.188089352828356624e-11	3.828007362862884150e-13	1.916863501521482993e+00	-5.503320418907822809e-11	3.699919834525765941e-13
7.500000000000076423e-07	1.907105363855734037e+00	-5.259924166318090464e-12	3.862994523652301819e-13	1.914062267946603058e+00	6.042475905418693356e-12	3.728716811026098512e-13
7.600000000000075466e-07	1.904100488405376046e+00	-3.162511926562656786e-12	3.898539440590139110e-13	1.911272777101971965e+00	9.788888112971386346e-12	3.757906886422329781e-13
7.700000000000074508e-07	1.901103672965918978e+00	5.445316121418398705e-10	3.934651236194547443e-13	1.908493877334175082e+00	-1.068812347555650907e-11	3.787497248750882751e-13
7.800000000000073551e-07	1.898113925933420987e+00	5.939582164335500073e-10	3.971339115406540423e-13	1.905724510214735989e+00	-1.243548484495571753e-11	3.817495178320583669e-13
7.900000000000072593e-07	1.895130343139020068e+00	6.243248883510539526e-10	4.008612366792517243e-13	1.902963703069179946e+00	-1.241764478682442964e-11	3.847908050892484355e-13
8.000000000000071636e-07	1.892152101045317947e+00	6.354561202958640792e-10	4.046480363633522335e-13	1.900210562199788011e+00	-1.373588043360674326e-11	3.878743340779215163e-13
8.100000000000070678e-07	1.889178450563266054e+00	6.247993374645298223e-10	4.084952564908434139e-13	1.897464266729274929e+00	-1.577543302537387482e-11	3.910008623873155167e-13
8.200000000000069721e-07	1.886208711425219953e+00	5.865174657026363039e-10	4.124038516181596946e-13	1.894724063001161918e+00	-1.844710227147028474e-11	3.941711580611738349e-13
8.300000000000068763e-07	1.883242267057299024e+00	7.864476220657470482e-11	4.163747850403884541e-13	1.891989259479954111e+00	2.085068848176512109e-11	3.973859998887694504e-13
8.400000000000067806e-07	1.880278559900607105e+00	1.261629624473340256e-10	4.204090288635247307e-13	1.889259222100774904e+00	7.062734365030531923e-12	4.006461776910819516e-13
8.500000000000066849e-07	1.877317087136572082e+00	1.966639791969580100e-10	4.245075640698728157e-13	1.886533370023717904e+00	-1.918867009325297706e-11	4.039524926027979669e-13
8.600000000000065891e-07	1.874357396776531015e+00	2.991025573081336987e-10	4.286713805772534320e-13	1.883811171753098979e+00	-6.482402095712886065e-11	4.073057573506694059e-13
8.700000000000064934e-07	1.871399084080155095e+00	4.510313853230165724e-10	4.329014772929765118e-13	1.881092141586246935e+00	-1.367290985023432304e-10	4.107067965288097601e-13
8.800000000000063976e-07	1.868441788271040904e+00	6.774969405213662573e-10	4.371988621633714127e-13	1.878375836360171025e+00	-2.515351763830436106e-10	4.141564468713626499e-13
8.900000000000063019e-07	1.865485189521205012e+00	1.001983489679139870e-09	4.415645522196997836e-13	1.875661852467912949e+00	-4.190620011954808313e-10	4.176555575230251254e-13
9.000000000000062061e-07	1.862529006179177049e+00	1.469235827207532364e-09	4.459995736213202662e-13	1.872949823119288926e+00	-6.719674869329797175e-10	4.212049903078399656e-13
9.100000000000061104e-07	1.859572992219058030e+00	2.133367188819856188e-09	4.505049616969340812e-13	1.870239415823433005e+00	-1.031964913016208613e-09	4.248056199966339649e-13
9.200000000000060147e-07	1.856616934890132908e+00	3.068851620288247199e-09	4.550817609848192065e-13	1.867530330072769029e+00	-1.550065755979174652e-09	4.284583345734742450e-13
9.300000000000059189e-07	1.853660652548859034e+00	4.368948266307439111e-09	4.597310252729062782e-13	1.864822295210248004e+00	-2.276498940654861500e-09	4.321640355014761109e-13
9.400000000000058232e-07	1.850703992656675956e+00	6.161422801069178579e-09	4.644538176396659199e-13	1.862115068463362055e+00	-3.280886017302596575e-09	4.359236379883061665e-13
9.500000000000057274e-07	1.847746829928915924e+00	8.608352633931575685e-09	4.692512104966940047e-13	1.859408433130198102e+00	-4.660406604496595779e-09	4.397380712516465051e-13
9.600000000000056317e-07	1.844789064621392027e+00	1.191941051994324107e-08	4.741242856340296309e-13	1.856702196904177038e+00	-6.536558248941486622e-09	4.436082787849593477e-13
9.700000000000055359e-07	1.841830620942612073e+00	1.636087330648973586e-08	4.790741342691623426e-13	1.853996190325440052e+00	-9.061605847746035008e-09	4.475352186238023450e-13
9.800000000000054402e-07	1.838871445580698039e+00	2.227724890443051485e-08	4.841018571007896804e-13	1.851290265347981912e+00	-1.243045493066170981e-08	4.515198636129639411e-13
9.900000000000053444e-07	1.835911506335160981e+00	2.585224513470846461e-08	4.892085643683692385e-13	1.848584294012701079e+00	-1.591512553131136289e-08	4.555632016747180865e-13
1.000000000000005249e-06	1.832950790844515065e+00	3.954072877025666577e-08	4.943953759187974788e-13	1.845878167217404053e+00	-2.337012519960039602e-08	4.596662360783897977e-13
1.010000000000005153e-06	1.829989305401676036e+00	5.286220861992209329e-08	4.996634212806449509e-13	1.843171793575687056e+00	-3.109124502972716288e-08	4.638299857115914369e-13
1.020000000000005057e-06	1.827027073849712968e+00	7.020262144388233363e-08	5.050138397483382768e-13	1.840465098357316087e+00	-4.111202890920138054e-08	4.680554853532394689e-13
1.030000000000004961e-06	1.824064136551265092e+00	9.264833413571307873e-08	5.104477804763293928e-13	1.837758022503412914e+00	-5.403290089350767246e-08	4.723437859487254015e-13
1.040000000000004866e-06	1.821100549425513027e+00	1.215694013256429485e-07	5.159664025851954985e-13	1.835050521710366978e+00	-7.063832020005582456e-08	4.766959548874510370e-13
1.050000000000004770e-06	1.818136383047173954e+00	1.586933749761021705e-07	5.215708752807208542e-13	1.832342565576942972e+00	-9.187367014447909805e-08	4.811130762829279634e-13
1.060000000000004674e-06	1.815171721802377958e+00	2.061482921276778301e-07	5.272623779874126380e-13	1.829634136809453970e+00	-1.189332511080124049e-07	4.855962512557803564e-13
1.070000000000004578e-06	1.812206663096860071e+00	2.665909101299129628e-07	5.330421004977319211e-13	1.826925230480449969e+00	-1.532890565730756600e-07	4.901465982198504156e-13
1.080000000000004483e-06	1.809241316612230088e+00	3.432894390792773890e-07	5.389112431384885405e-13	1.824215853336681903e+00	-1.967638551971577224e-07	4.947652531716884561e-13
1.090000000000004387e-06	1.806275803606419927e+00	4.401818998636625546e-07	5.448710169558756063e-13	1.821506023152434040e+00	-2.515841174957784813e-07	4.994533699837087667e-13
1.100000000000004291e-06	1.803310256254827992e+00	5.620405581402792785e-07	5.509226439205410250e-13	1.818795768124771950e+00	-3.204574586499209582e-07	5.042121207012505445e-13
1.110000000000004196e-06	1.800344817028848965e+00	7.145092704578710274e-07	5.570673571543272779e-13	1.816085126307362074e+00	-4.066439381036414013e-07	5.090426958438805537e-13
1.120000000000004100e-06	1.797379638108927979e+00	9.041268484529745173e-07	5.633064011800722922e-13	1.813374145080006938e+00	-5.140259252608953517e-07	5.139463047111863083e-13
1.130000000000004004e-06	1.794414880829301895e+00	1.138403862016932198e-06	5.696410321961925093e-13	1.810662880651056073e+00	-6.471337257641059449e-07	5.189241756933772429e-13
1.140000000000003908e-06	1.791450715152024920e+00	1.428456105880403372e-06	5.760725183774389709e-13	1.807951397590263909e+00	-8.007685089243546979e-07	5.239775565870473803e-13
1.150000000000003813e-06	1.788487319167954004e+00	1.804176643398321795e-06	5.826021402039157779e-13	1.805239768389764965e+00	-1.006455736758357245e-06	5.291077149163012449e-13
1.160000000000003717e-06	1.785524878622581912e+00	2.273724120352598399e-06	5.892311908190283647e-13	1.802528073051038016e+00	-1.262478903146690864e-06	5.343159382598015078e-13
1.170000000000003621e-06	1.782563586464817051e+00	2.858679459080500710e-06	5.959609764191649332e-13	1.799816398695913922e+00	-1.580421453770146856e-06	5.396035345838520616e-13
1.180000000000003525e-06	1.779603642416913045e+00	3.584800465961018871e-06	6.027928166759916433e-13	1.797104839199836990e+00	-1.974272491979015232e-06	5.449718325820463374e-13
1.190000000000003430e-06	1.776645252563930022e+00	4.482553343155496533e-06	6.097280451932365505e-13	1.794393494845704096e+00	-2.460705528176790328e-06	5.504221820217664164e-13
1.200000000000003334e-06	1.773688628961213931e+00	5.587596769157528764e-06	6.167680099997062142e-13	1.791682471996751014e+00	-3.059470889696708589e-06	5.559559540980291267e-13
1.210000000000003238e-06	1.770733989258548968e+00	6.941304871143498736e-06	6.239140740800487834e-13	1.788971882787095069e+00	-3.793776024587764055e-06	5.615745417949711399e-13
1.220000000000003142e-06	1.767781556339669047e+00	8.591168471825999094e-06	6.311676159450559521e-13	1.786261844828588075e+00	-4.690641758736455864e-06	5.672793602554976293e-13
1.230000000000003047e-06	1.764831557976014098e+00	1.059126846110487748e-05	6.385300302430142575e-13	1.783552480932816042e+00	-5.781258594686652728e-06	5.730718471595308008e-13
1.240000000000002951e-06	1.761884226493624084e+00	1.300251866879060359e-05	6.460027284138238975e-13	1.780843918847083041e+00	-7.101317644669016414e-06	5.789534631112472456e-13
1.250000000000002855e-06	1.758939798452191061e+00	1.589299409715075429e-05	6.535871393874448167e-13	1.778136291003366898e+00	-8.691348068342654045e-06	5.849256920358877497e-13
1.260000000000002759e-06	1.755998514335405103e+00	1.933817474948224929e-05	6.612847103282016372e-13	1.775429734279303950e+00	-1.059698018828065596e-05	5.909900415865862664e-13
1.270000000000002664e-06	1.753060618251705005e+00	2.342131926796496897e-05	6.690969074265667569e-13	1.772724389770276909e+00	-1.286923535981741348e-05	5.971480435617373647e-13
1.280000000000002568e-06	1.750126357644719022e+00	2.823397842474517373e-05	6.770252167398262676e-13	1.770020402571802043e+00	-1.556479235748491085e-05	6.034012543334642755e-13
1.290000000000002472e-06	1.747195983012689968e+00	3.387676746911701109e-05	6.850711450831188709e-13	1.767317921571466943e+00	-1.874627527832480652e-05	6.097512552877625837e-13
1.300000000000002376e-06	1.744269747636230994e+00	4.046051181451914717e-05	6.932362209722593088e-13	1.764617099249683019e+00	-2.248256548950965567e-05	6.161996532767886939e-13
1.310000000000002281e-06	1.741347907313846033e+00	4.810783448768463371e-05	7.015219956196367602e-13	1.761918091488605009e+00	-2.684931940342184266e-05	6.227480810841032838e-13
1.320000000000002185e-06	1.738430720104672034e+00	5.695543244109372975e-05	7.099300439845050071e-13	1.759221057388610898e+00	-3.192952261311381455e-05	6.293981979032418381e-13
1.330000000000002089e-06	1.735518446077980892e+00	6.715674737641047997e-05	7.184619658788175981e-13	1.756526159091789996e+00	-3.781435278156247448e-05	6.361516898304266180e-13
1.340000000000001993e-06	1.732611347068959917e+00	7.890377271057689328e-05	7.271193871303761663e-13	1.753833561611866987e+00	-4.462093494357156703e-05	6.430102703723737683e-13
1.350000000000001898e-06	1.729709686440408900e+00	9.235449628085891415e-05	7.359039608022904414e-13	1.751143432670126954e+00	-5.243620688350914135e-05	6.499756809675010128e-13
1.360000000000001802e-06	1.726813728849984964e+00	1.077396285399265198e-04	7.448173684703066742e-13	1.748455942536871977e+00	-6.138054645380860671e-05	6.570496915278416230e-13
1.370000000000001706e-06	1.723923740022645035e+00	1.253187829163754157e-04	7.538613215663481734e-13	1.745771263877943014e+00	-7.160182597962195996e-05	6.642341009921008902e-13
1.380000000000001610e-06	1.721039986528037025e+00	1.453786973433422399e-04	7.630375627735803491e-13	1.743089571606013966e+00	-8.325565511805420738e-05	6.715307379001451769e-13
1.390000000000001515e-06	1.718162735562527077e+00	1.682417623157834595e-04	7.723478674875484242e-13	1.740411042736174974e+00	-9.651769401897462505e-05	6.789414609843581037e-13
1.400000000000001419e-06	1.715292254735681921e+00	1.942643148356183866e-04	7.817940453378386733e-13	1.737735856245584021e+00	-1.115866841884748356e-04	6.864681597801870821e-13
1.410000000000001323e-06	1.712428811860960964e+00	2.238317157369997164e-04	7.913779417718098141e-13	1.735064192936792926e+00	-1.286867900515906984e-04	6.941127552565003805e-13
1.420000000000001227e-06	1.709572674750460042e+00	2.573471351461466619e-04	8.011014397007601762e-13	1.732396235304501930e+00	-1.480694432164645280e-04	7.018772004665072810e-13
1.430000000000001132e-06	1.706724111013544043e+00	2.952133909441134610e-04	8.109664612086324307e-13	1.729732167405463095e+00	-1.700135435026114874e-04	7.097634812199911628e-13
1.440000000000001036e-06	1.703883387859232990e+00	3.378056781540920680e-04	8.209749693235859645e-13	1.727072174731288046e+00	-1.948236575064981691e-04	7.177736167776911753e-13
1.450000000000000940e-06	1.701050771902236081e+00	3.854335718639243457e-04	8.311289698521815370e-13	1.724416444083936906e+00	-2.228251373458791447e-04	7.259096605686316092e-13
1.460000000000000844e-06	1.698226528972508032e+00	4.382920808125046483e-04	8.414305132760871375e-13	1.721765163453663927e+00	-2.543549599787999415e-04	7.341737009311279998e-13
1.470000000000000749e-06	1.695410923928311941e+00	4.964004217779128657e-04	8.518816967110594782e-13	1.719118521899263952e+00	-2.897477795261743801e-04	7.425678618783594449e-13
1.480000000000000653e-06	1.692604220472645027e+00	5.595320143293103709e-04	8.624846659277424938e-13	1.716476709430382996e+00	-3.293154172124972438e-04	7.510943038892540425e-13
1.490000000000000557e-06	1.689806680973062969e+00	6.271364429741089260e-04	8.732416174336692305e-13	1.713839916891803927e+00	-3.733194976274897738e-04	7.597552247254720187e-13
1.500000000000000462e-06	1.687018566282223020e+00	7.297078142092744499e-04	8.841548004932399315e-13	1.711208335850187945e+00	-4.104916484149925674e-04	7.685528603033422433e-13
1.510000000000000366e-06	1.684240135574013086e+00	8.349566387407925507e-04	8.952265197905396165e-13	1.708582158479333923e+00	-4.661482858588600169e-04	7.774894854649850993e-13
1.520000000000000270e-06	1.681471646159760969e+00	9.552760945489050751e-04	9.064591370428929089e-13	1.705961577452751010e+00	-5.294520805086023064e-04	7.865674150145298757e-13
1.530000000000000174e-06	1.678713353329756020e+00	1.092475867135477658e-03	9.178550737257640850e-13	1.703346785832319021e+00	-6.014904828424724823e-04	7.957890045642366246e-13
1.540000000000000079e-06	1.675965510187648944e+00	1.248415348302861060e-03	9.294168133520815254e-13	1.700737976960758013e+00	-6.834640509205734769e-04	8.051566515125074838e-13
1.549999999999999983e-06	1.673228367490185997e+00	1.425025698183475130e-03	9.411469039006670240e-13	1.698135344354865905e+00	-7.766918331410471808e-04	8.146727960326403406e-13
1.559999999999999887e-06	1.670502173490328035e+00	1.623952912890482513e-03	9.530479603071820598e-13	1.695539081599920062e+00	-8.825424801870882744e-04	8.243399220969760729e-13
1.569999999999999791e-06	1.667787173783741972e+00	1.847141936540538758e-03	9.651226669834911350e-13	1.692949382245191980e+00	-1.002535106042580244e-03	8.341605585222059414e-13
1.579999999999999696e-06	1.665083611158818977e+00	2.096159957879401448e-03	9.773737804176556340e-13	1.690366439700464074e+00	-1.138200303261906925e-03	8.441372800613713698e-13
1.589999999999999600e-06	1.662391725450131030e+00	2.372485423175861672e-03	9.898041317979938726e-13	1.687790447133558969e+00	-1.291115061684329317e-03	8.542727085177731048e-13
1.599999999999999504e-06	1.659711753395487932e+00	2.677419400567448895e-03	1.002416629692115740e-12	1.685221597368794066e+00	-1.462860954999044109e-03	8.645695138967982071e-13
1.609999999999999408e-06	1.657043928496614971e+00	3.012085403992613084e-03	1.015214262767203682e-12	1.682660082786372913e+00	-1.654993390714596963e-03	8.750304155905380078e-13
1.619999999999999313e-06	1.654388480883496992e+00	3.377452247716248961e-03	1.028200102550812416e-12	1.680106095222628992e+00	-1.869010331085836207e-03	8.856581835966729719e-13
1.629999999999999217e-06	1.651745637182469029e+00	3.774386014483818892e-03	1.041377306229441261e-12	1.677559825871145938e+00	-2.106323720953477696e-03	8.964556397715559050e-13
1.639999999999999121e-06	1.649115620388138970e+00	4.203733875844542153e-03	1.054749119481879975e-12	1.675021465184741043e+00	-2.368236042989389084e-03	9.074256591178740774e-13
1.649999999999999025e-06	1.646498649739168041e+00	4.666439686364023433e-03	1.068318879344496357e-12	1.672491202778267905e+00	-2.655925787791583222e-03	9.185711711069708415e-13
1.659999999999998930e-06	1.643894940598016996e+00	5.163687800793544461e-03	1.082090017105163567e-12	1.669969227332293915e+00	-2.970444940411714682e-03	9.298951610357702982e-13
