# wavelength [m]	effective refractive index	transmission [dB/m]	effective mode area [m]	effective refractive index	transmission [dB/m]	effective mode area [m]	
5.500000000000095572e-07	1.995345918323673029e+00	-1.108976586536281478e-14	5.101464468737756585e-13	1.996605974066675948e+00	0.000000000000000000e+00	5.091719693341918303e-13
5.600000000000094614e-07	1.992488598330466987e+00	-1.542923946485262257e-14	5.128682057296406789e-13	1.993811307996020910e+00	9.643274665532869384e-16	5.116993497477565219e-13
5.700000000000093657e-07	1.989706076801817991e+00	-1.060760213208617052e-14	5.156188963139994316e-13	1.991093094229370974e+00	-7.232455999149659138e-15	5.142473404549219266e-13
5.800000000000092699e-07	1.986991823979644911e+00	-1.205409333191610645e-14	5.183990781038521314e-13	1.988444805132913995e+00	-2.941198772987535812e-14	5.168164230219804993e-13
5.900000000000091742e-07	1.984339919364227045e+00	1.060760213208614528e-14	5.212093053808294306e-13	1.985860521658189048e+00	-3.375146132936506257e-15	5.194070710216525619e-13
6.000000000000090785e-07	1.981744985404493065e+00	-1.784005813123584544e-14	5.240501280963199425e-13	1.983334867039282079e+00	-9.161110932256236170e-15	5.220197510882857348e-13
6.100000000000089827e-07	1.979202129533921051e+00	-2.314385919727894963e-14	5.269220926539956216e-13	1.980862948835601989e+00	8.678947198979574557e-15	5.246549238715902448e-13
6.200000000000088870e-07	1.976706893362736972e+00	-8.678947198979593490e-15	5.298257426193010944e-13	1.978440308130902103e+00	1.928654933106573877e-15	5.273130449008448569e-13
6.300000000000087912e-07	1.974255208026060915e+00	-2.603684159693883096e-14	5.327616193642503372e-13	1.976062874888182996e+00	-4.966286452749456526e-14	5.299945653699144997e-13
6.400000000000086955e-07	1.971843354843300089e+00	-2.700116906349212263e-14	5.357302626547848901e-13	1.973726928615757936e+00	-5.785964799319761389e-14	5.326999328521470673e-13
6.500000000000085997e-07	1.969467930573338021e+00	-8.678947198979593490e-15	5.387322111869736960e-13	1.971429063629045908e+00	-7.039590505839053184e-14	5.354295919529483414e-13
6.600000000000085040e-07	1.967125816657470994e+00	-1.542923946485262257e-14	5.417680030775896678e-13	1.969166158299995972e+00	-4.869853706094127359e-14	5.381839849070062928e-13
6.700000000000084082e-07	1.964814151931643105e+00	-3.568011626247177292e-14	5.448381763138807658e-13	1.966935347775728093e+00	-8.100350719047686644e-14	5.409635521261409195e-13
6.800000000000083125e-07	1.962530308364758946e+00	-2.266169546400230380e-14	5.479432691667641822e-13	1.964733999723154989e+00	-8.486081705669009624e-14	5.437687327031164105e-13
6.900000000000082168e-07	1.960271869442937076e+00	-4.580555466128137964e-14	5.510838205711670562e-13	1.962559692719423987e+00	-9.932572905498969851e-14	5.465999648760779170e-13
7.000000000000081210e-07	1.958036610872827987e+00	-5.400233812698441565e-14	5.542603704767942707e-13	1.960410196961342999e+00	-1.031830389212029535e-13	5.494576864577018818e-13
7.100000000000080253e-07	1.955822483322122052e+00	-6.750292265873061896e-14	5.574734601722309837e-13	1.958283457011879003e+00	-8.871812692290332604e-14	5.523423352327591147e-13
7.200000000000079295e-07	1.953627596953662060e+00	-9.691491038860643777e-14	5.607236325848957662e-13	1.956177576340168978e+00	-9.402192798894649965e-14	5.552543493272598934e-13
7.300000000000078338e-07	1.951450207541963078e+00	-1.152371322531193456e-13	5.640114325591959364e-13	1.954090803443828905e+00	-6.219912159268747059e-14	5.581941675520321950e-13
7.400000000000077380e-07	1.949288703988740989e+00	6.557426772562302587e-14	5.673374071147873421e-13	1.952021519370189973e+00	1.735789439795913334e-14	5.611622297233449597e-13
7.500000000000076423e-07	1.947141597077781894e+00	-1.012543839880952626e-14	5.707021056868411469e-13	1.949968226476765043e+00	1.099333311870733321e-13	5.641589769627286496e-13
7.600000000000075466e-07	1.945007509329716999e+00	-2.251704634401983574e-13	5.741060803498369794e-13	1.947929538291544915e+00	3.085847892970409151e-13	5.671848519780999312e-13
7.700000000000074508e-07	1.942885165834925987e+00	3.375146132936491820e-14	5.775498860263202172e-13	1.945904170351326012e+00	7.868912127074110812e-13	5.702402993279305684e-13
7.800000000000073551e-07	1.940773385957655917e+00	-3.495687066257072459e-12	5.810340806819386947e-13	1.943890931911179898e+00	6.605643145889514680e-13	5.733257656700862112e-13
7.900000000000072593e-07	1.938671075817639977e+00	-4.582966284796914806e-12	5.845592255078313834e-13	1.941888718431330041e+00	1.081011090006100253e-12	5.764416999967900175e-13
8.000000000000071636e-07	1.936577221466643017e+00	-6.391562448319890033e-12	5.881258850914382601e-13	1.939896504758898965e+00	2.485071881307109902e-12	5.795885538569642986e-13
8.100000000000070678e-07	1.934490882687202928e+00	-9.323600110380464427e-12	5.917346275766206430e-13	1.937913338931771978e+00	4.832244934895833523e-12	5.827667815671569297e-13
8.200000000000069721e-07	1.932411187349309944e+00	-6.926282028524507341e-12	5.953860248139384621e-13	1.935938336540329985e+00	5.650958953998586017e-12	5.859768404120386425e-13
8.300000000000068763e-07	1.930337326268158016e+00	-9.864105655384776529e-12	5.990806525018117810e-13	1.933970675590207966e+00	9.811067644702060419e-12	5.892191908354949737e-13
8.400000000000067806e-07	1.928268548512614977e+00	-1.472865556042660660e-11	6.028190903192177528e-13	1.932009591815698979e+00	1.476192485797263225e-11	5.924942966230445308e-13
8.500000000000066849e-07	1.926204157119663085e+00	-2.185744635695181029e-11	6.066019220505755059e-13	1.930054374399100992e+00	2.334636796519232956e-11	5.958026250764642714e-13
8.600000000000065891e-07	1.924143505175013091e+00	-5.971115672939001667e-11	6.104297357033262531e-13	1.928104362056167975e+00	6.287800812868536095e-11	5.991446471812332955e-13
8.700000000000064934e-07	1.922085992224505047e+00	-7.909510313488742545e-11	6.143031236187097594e-13	1.926158939452327967e+00	9.383774144182004566e-11	6.025208377674630958e-13
8.800000000000063976e-07	1.920031060984656035e+00	-1.472894485889136224e-10	6.182226825762032654e-13	1.924217533918000100e+00	1.358949552394961937e-10	6.059316756648615449e-13
8.900000000000063019e-07	1.917978194324134966e+00	-2.108193420880634027e-10	6.221890138920317111e-13	1.922279612434816931e+00	1.990159738877743292e-10	6.093776438522810316e-13
9.000000000000062061e-07	1.915926912490901080e+00	-2.997978374321659910e-10	6.262027235120822719e-13	1.920344678867478949e+00	2.873435481817768358e-10	6.128592296022405045e-13
9.100000000000061104e-07	1.913876770562378038e+00	-4.235649283009882616e-10	6.302644220996252880e-13	1.918412271418636017e+00	4.128044802251795137e-10	6.163769246209521452e-13
9.200000000000060147e-07	1.911827356098328101e+00	-5.951322852054714944e-10	6.343747251181317850e-13	1.916481960286434916e+00	5.862137025507128786e-10	6.199312251841631657e-13
9.300000000000059189e-07	1.909778286978226935e+00	-8.319788256496057109e-10	6.385342529094183126e-13	1.914553345506587068e+00	8.275299007241297326e-10	6.235226322691982498e-13
9.400000000000058232e-07	1.907729209406676008e+00	-1.156894500667135961e-09	6.427436307674968464e-13	1.912626054962434985e+00	1.157728161453569920e-09	6.271516516835261592e-13
9.500000000000057274e-07	1.905679796072101029e+00	-1.598870369079129680e-09	6.470034890082412275e-13	1.910699742548338964e+00	1.607032436164394409e-09	6.308187941901306087e-13
9.600000000000056317e-07	1.903629744445384020e+00	-2.192857033472857437e-09	6.513144630352252663e-13	1.908774086472976972e+00	2.212893346291779123e-09	6.345245756299819681e-13
9.700000000000055359e-07	1.901578775206393956e+00	-2.991427698768136957e-09	6.556771934018177332e-13	1.906848787690571090e+00	3.025065367372648172e-09	6.382695170418325445e-13
9.800000000000054402e-07	1.899526630787508941e+00	-4.050642095906624186e-09	6.600923258698216082e-13	1.904923568449109927e+00	4.101809307455903819e-09	6.420541447795723260e-13
9.900000000000053444e-07	1.897473074024315087e+00	-5.452354269196995283e-09	6.645605114648241970e-13	1.902998170945777057e+00	5.522223162361471192e-09	6.458789906273664246e-13
1.000000000000005249e-06	1.895417886904493976e+00	-7.284706160379467472e-09	6.690824065283557558e-13	1.901072356080589998e+00	7.379279671300502207e-09	6.497445919127534454e-13
1.010000000000005153e-06	1.893360869406863989e+00	-9.674823613704980476e-09	6.736586727671310725e-13	1.899145902300219957e+00	9.789249724749605601e-09	6.536514916178711889e-13
1.020000000000005057e-06	1.891301838423147919e+00	-1.276284269794351420e-08	6.782899772994345890e-13	1.897218604524576024e+00	1.289598494253170336e-08	6.576002384889986082e-13
1.030000000000004961e-06	1.889240626755819052e+00	-1.673262257222504568e-08	6.829769926988697940e-13	1.895290273149514926e+00	1.687030725424400666e-08	6.615913871445717437e-13
1.040000000000004866e-06	1.887177082185929056e+00	-2.180521506090235522e-08	6.877203970355410437e-13	1.893360733119564987e+00	2.192860113230991056e-08	6.656254981817616833e-13
1.050000000000004770e-06	1.885111066605388075e+00	-2.824562555414747948e-08	6.925208739148440110e-13	1.891429823065156057e+00	2.832643842243319028e-08	6.697031382817836820e-13
1.060000000000004674e-06	1.883042455208570942e+00	-3.617164810555584451e-08	6.973791125140160219e-13	1.889497394499239924e+00	3.636444627523001922e-08	6.738248803140751678e-13
1.070000000000004578e-06	1.880971135738721989e+00	-4.639462253881991037e-08	7.022958076165147401e-13	1.887563311068749972e+00	4.642292842918444263e-08	6.779913034394052388e-13
1.080000000000004483e-06	1.878897007784877893e+00	-5.919139282466005061e-08	7.072716596444207863e-13	1.885627447856661032e+00	5.894185348495912737e-08	6.822029932120612566e-13
1.090000000000004387e-06	1.876819982125462083e+00	-7.514249859561074368e-08	7.123073746889175063e-13	1.883689690730772082e+00	7.445627754262622096e-08	6.864605416811730184e-13
1.100000000000004291e-06	1.874739980115047944e+00	-9.494645050204113929e-08	7.174036645390337803e-13	1.881749935735741008e+00	9.360115233352199006e-08	6.907645474913103191e-13
1.110000000000004196e-06	1.872656933110983024e+00	-1.194487511737918343e-07	7.225612467087158111e-13	1.879808088525056986e+00	1.171422984466087491e-07	6.951156159823855083e-13
1.120000000000004100e-06	1.870570781937018978e+00	-1.496678153908599963e-07	7.277808444624093401e-13	1.877864063830092967e+00	1.459899213317147552e-07	6.995143592890033140e-13
1.130000000000004004e-06	1.868481476381089079e+00	-1.868201824433889251e-07	7.330631868392030829e-13	1.875917784963397006e+00	1.812284379325980288e-07	7.039613964392499572e-13
1.140000000000003908e-06	1.866388974724839001e+00	-2.323665039715689482e-07	7.384090086757589590e-13	1.873969183353827006e+00	2.241484306196216751e-07	7.084573534530861440e-13
1.150000000000003813e-06	1.864293243302566072e+00	-2.880449878453497492e-07	7.438190506280187169e-13	1.872018198111178977e+00	2.762779559780389039e-07	7.130028634403362624e-13
1.160000000000003717e-06	1.862194256087430944e+00	-3.559167992396339940e-07	7.492940591919456492e-13	1.870064775618206943e+00	3.394182306655643335e-07	7.175985666983817249e-13
1.170000000000003621e-06	1.860091994303040952e+00	-4.384077895732327693e-07	7.548347867233520880e-13	1.868108869148086937e+00	4.156839527739815599e-07	7.222451108095801656e-13
1.180000000000003525e-06	1.857986446058564001e+00	-5.383533793121042994e-07	7.604419914569833260e-13	1.866150438505546072e+00	5.075395132032942444e-07	7.269431507385241894e-13
1.190000000000003430e-06	1.855877606005746916e+00	-6.590363390236705060e-07	7.661164375249553023e-13	1.864189449689984901e+00	6.178368299669977113e-07	7.316933489291105932e-13
1.200000000000003334e-06	1.853765475016275976e+00	-8.042238930448008674e-07	7.718588949747417422e-13	1.862225874579074958e+00	7.498462643713256995e-07	7.364963754016044366e-13
1.210000000000003238e-06	1.851650059878116927e+00	-9.781856707072794088e-07	7.776701397868079875e-13	1.860259690631433038e+00	9.072856441670511971e-07	7.413529078495546813e-13
1.220000000000003142e-06	1.849531373009462021e+00	-1.185701469042211323e-06	7.835509538920543900e-13	1.858290880607045059e+00	1.094328182332942184e-06	7.462636317368325136e-13
1.230000000000003047e-06	1.847409432189152989e+00	-1.433719227774229941e-06	7.895021251892758608e-13	1.856319432304269990e+00	1.311225232708379039e-06	7.512292403946460390e-13
1.240000000000002951e-06	1.845284260302388901e+00	-1.733796891790903329e-06	7.955244475625422553e-13	1.854345338312278990e+00	1.576583504752236995e-06	7.562504351187743940e-13
1.250000000000002855e-06	1.843155885100727032e+00	-2.093238886619740924e-06	8.016187208992815395e-13	1.852368595777899030e+00	1.884009645905498791e-06	7.613279252667567225e-13
1.260000000000002759e-06	1.841024338975415953e+00	-2.530818023450698424e-06	8.077857511082142205e-13	1.850389206185943047e+00	2.262294239265809833e-06	7.664624283555910712e-13
1.270000000000002664e-06	1.838889658743150024e+00	-3.054456703497906190e-06	8.140263501385589415e-13	1.848407175152080084e+00	2.712065575414335484e-06	7.716546701592955570e-13
1.280000000000002568e-06	1.836751885443425047e+00	-3.679550022552029653e-06	8.203413359995582662e-13	1.846422512227462898e+00	3.245722914598273782e-06	7.769053848070821447e-13
1.290000000000002472e-06	1.834611064146749015e+00	-4.423740352121591942e-06	8.267315327812142345e-13	1.844435230714355001e+00	3.877457854127576229e-06	7.822153148816855203e-13
1.300000000000002376e-06	1.832467243772960996e+00	-5.307144352395978088e-06	8.331977706761347358e-13	1.842445347492005059e+00	4.623424913618635296e-06	7.875852115181280729e-13
1.310000000000002281e-06	1.830320476919018891e+00	-6.352522995925675127e-06	8.397408860027851398e-13	1.840452882852140926e+00	5.501888311607845510e-06	7.930158345028856427e-13
1.320000000000002185e-06	1.828170819695634108e+00	-7.585471910810948082e-06	8.463617212303032105e-13	1.838457860343474026e+00	6.533374954615667997e-06	7.985079523735145189e-13
1.330000000000002089e-06	1.826018331572176079e+00	-9.034584872451212800e-06	8.530611250050626900e-13	1.836460306624613015e+00	7.740799375744333193e-06	8.040623425187746251e-13
1.340000000000001993e-06	1.823863075229303021e+00	-1.073159047155167482e-05	8.598399521793016043e-13	1.834460251324881108e+00	9.149601498204522630e-06	8.096797912793344174e-13
1.350000000000001898e-06	1.821705116418842918e+00	-1.271149493107325279e-05	8.666990638419173733e-13	1.832457726912513074e+00	1.078782138383815142e-05	8.153610940490243743e-13
1.360000000000001802e-06	1.819544523830445071e+00	-1.501267470172041156e-05	8.736393273517014572e-13	1.830452768569825084e+00	1.268619355093319343e-05	8.211070553767497481e-13
1.370000000000001706e-06	1.817381368964549937e+00	-1.767699101081882560e-05	8.806616163732796075e-13	1.828445414074822972e+00	1.487821742163999660e-05	8.269184890691134672e-13
1.380000000000001610e-06	1.815215726011325970e+00	-2.074987810251176516e-05	8.877668109159193804e-13	1.826435703688976897e+00	1.740019258099194467e-05	8.327962182936903225e-13
1.390000000000001515e-06	1.813047671735128041e+00	-2.428044669275672911e-05	8.949557973755357052e-13	1.824423680050661911e+00	2.029127822406485626e-05	8.387410756831933612e-13
1.400000000000001419e-06	1.810877285364179023e+00	-2.832162073450671211e-05	9.022294685800378909e-13	1.822409388074007985e+00	2.359352128677371871e-05	8.447539034403502307e-13
1.410000000000001323e-06	1.808704648485119026e+00	-3.293032656714927004e-05	9.095887238383934926e-13	1.820392874852762022e+00	2.735193249487897132e-05	8.508355534437330214e-13
1.420000000000001227e-06	1.806529844942103891e+00	-3.816771228495213254e-05	9.170344689935414159e-13	1.818374189568894961e+00	3.161453594408547010e-05	8.569868873544905162e-13
1.430000000000001132e-06	1.804352960740196909e+00	-4.409954332398535672e-05	9.245676164795215008e-13	1.816353383405659105e+00	3.643253863244405968e-05	8.632087767240293954e-13
1.440000000000001036e-06	1.802174083952750916e+00	-5.079664367565786521e-05	9.321890853830111254e-13	1.814330509464803010e+00	4.186048439525896629e-05	8.695021031027750576e-13
1.450000000000000940e-06	1.799993304632546032e+00	-5.833553650738642607e-05	9.398998015095781115e-13	1.812305622687726103e+00	4.795655421716381989e-05	8.758677581499768168e-13
1.460000000000000844e-06	1.797810714726427950e+00	-6.679928318948231665e-05	9.477006974549222609e-13	1.810278779780293057e+00	5.478294490176660418e-05	8.823066437446468378e-13
1.470000000000000749e-06	1.795626407993260898e+00	-7.627844291202574422e-05	9.555927126813917834e-13	1.808250039141140020e+00	6.240635769381776027e-05	8.888196720977470118e-13
1.480000000000000653e-06	1.793440479924933051e+00	-8.685177593595514952e-05	9.635767935998261138e-13	1.806219460793208054e+00	7.090660318111847125e-05	8.954077658656082216e-13
1.490000000000000557e-06	1.791253027670282050e+00	-9.864100202716233931e-05	9.716538936580266750e-13	1.804187106318345002e+00	8.033746694360388661e-05	9.020718582644464900e-13
1.500000000000000462e-06	1.789064149961683947e+00	-1.117598087724941110e-04	9.798249734338766950e-13	1.802153038794783058e+00	9.079351461915783066e-05	9.088128931867267537e-13
1.510000000000000366e-06	1.786873947044218092e+00	-1.263368105627517702e-04	9.880910007362063508e-13	1.800117322737311065e+00	1.023647274202559997e-04	9.156318253185098232e-13
1.520000000000000270e-06	1.784682520607169032e+00	-1.425140879088947611e-04	9.964529507117113150e-13	1.798080024039987901e+00	1.151494314878349825e-04	9.225296202584907615e-13
1.530000000000000174e-06	1.782489973717769072e+00	-1.604484718703710032e-04	1.004911805958874873e-12	1.796041209921239945e+00	1.292553847161250272e-04	9.295072546385669202e-13
1.540000000000000079e-06	1.780296410757006065e+00	-1.803125592507574565e-04	1.013468556649259136e-12	1.794000948871196099e+00	1.448008484682375863e-04	9.365657162460502406e-13
1.549999999999999983e-06	1.778101937357384088e+00	-2.022953374868618755e-04	1.022124200656183530e-12	1.791959310601139110e+00	1.619150554984170572e-04	9.437060041475148306e-13
1.559999999999999887e-06	1.775906660342507992e+00	-2.266014602010725022e-04	1.030879743691301680e-12	1.789916365994925984e+00	1.807414127538128955e-04	9.509291288144635928e-13
1.569999999999999791e-06	1.773710687668361041e+00	-2.534510823892404188e-04	1.039736199449200300e-12	1.787872187062280904e+00	2.014330277709532827e-04	9.582361122507881538e-13
1.579999999999999696e-06	1.771514128366187046e+00	-2.830762453262234183e-04	1.048694589760392668e-12	1.785826846893816988e+00	2.241574138708376141e-04	9.656279881221648727e-13
1.589999999999999600e-06	1.769317092486853982e+00	-3.157172381407178925e-04	1.057755944752861586e-12	1.783780419617708946e+00	2.490932653411686150e-04	9.731058018873451259e-13
1.599999999999999504e-06	1.767119691046612928e+00	-3.516161643715170647e-04	1.066921303022634084e-12	1.781732980357904950e+00	2.764291425145258075e-04	9.806706109315755409e-13
1.609999999999999408e-06	1.764922035974177073e+00	-3.910084218900218133e-04	1.076191711813224068e-12	1.779684605193786018e+00	3.063605696576265588e-04	9.883234847020789124e-13
1.619999999999999313e-06	1.762724240058995973e+00	-4.341113324344390715e-04	1.085568227204763866e-12	1.777635371121180086e+00	3.390856877981976111e-04	9.960655048457004083e-13
1.629999999999999217e-06	1.760526416900676017e+00	-4.811099691195604980e-04	1.095051914312560484e-12	1.775585356014633964e+00	3.747993117527381409e-04	1.003897765348892338e-12
1.639999999999999121e-06	1.758328680859482018e+00	-5.321397697251129075e-04	1.104643847495508371e-12	1.773534638590910095e+00	4.136851230592692710e-04	1.011821372679943781e-12
1.649999999999999025e-06	1.756131147007802928e+00	-5.872662395003859113e-04	1.114345110574693300e-12	1.771483298373563997e+00	4.559058128242557037e-04	1.019837445933667519e-12
1.659999999999998930e-06	1.753933931082582998e+00	-6.464617329414289876e-04	1.124156797062165362e-12	1.769431415658603068e+00	5.015911488177004747e-04	1.027947116978532366e-12
