# wavelength [m]	effective refractive index	transmission [dB/m]	effective mode area [m]	effective refractive index	transmission [dB/m]	effective mode area [m]	
5.500000000000095572e-07	1.980978801646394061e+00	-1.880438559778914026e-14	3.649279415841169438e-13	1.982353378345774075e+00	8.775379945634824207e-14	3.633830555493740426e-13
5.600000000000094614e-07	1.977662490376157045e+00	1.350058453174599821e-14	3.674335238090041552e-13	1.979102202189922055e+00	-8.775379945635000912e-14	3.657256301377540864e-13
5.700000000000093657e-07	1.974416457231723099e+00	3.375146132936491820e-14	3.699716382193921467e-13	1.975922878048330000e+00	2.507251413038539098e-14	3.680948480010429981e-13
5.800000000000092699e-07	1.971234273503349010e+00	1.253625706519271284e-14	3.725429682229815356e-13	1.972808970683096019e+00	-2.844766026332206645e-14	3.704912980088694983e-13
5.900000000000091742e-07	1.968110119419496984e+00	5.014502826077064312e-14	3.751481955275408475e-13	1.969754652918801918e+00	-1.923833295773850522e-13	3.729155670067909307e-13
6.000000000000090785e-07	1.965038717857952033e+00	-3.649979460904345229e-13	3.777880010112138650e-13	1.966754639366308011e+00	-2.555467786366218512e-14	3.753682406921468195e-13
6.100000000000089827e-07	1.962015276403749064e+00	9.643274665532869384e-16	3.804630655154751871e-13	1.963804128492808054e+00	-1.446491199829930999e-15	3.778499044119315705e-13
6.200000000000088870e-07	1.959035436564303900e+00	2.892982399659860421e-15	3.831740705693275633e-13	1.960898751848594967e+00	-9.643274665532871356e-16	3.803611438920926664e-13
6.300000000000087912e-07	1.956095229141163960e+00	2.892982399659860421e-15	3.859216990522461076e-13	1.958034529449997008e+00	-9.643274665532871356e-16	3.829025459063765718e-13
6.400000000000086955e-07	1.953191034913488000e+00	0.000000000000000000e+00	3.887066358024399887e-13	1.955207830473612907e+00	1.928654933106573877e-15	3.854746988918223966e-13
6.500000000000085997e-07	1.950319549917642004e+00	1.928654933106573877e-15	3.915295681761860634e-13	1.952415338546301893e+00	-1.928654933106574666e-15	3.880781935170195274e-13
6.600000000000085040e-07	1.947477754714699083e+00	3.857309866213146965e-15	3.943911865632875049e-13	1.949654021022722006e+00	6.750292265873004625e-15	3.907136232085101933e-13
6.700000000000084082e-07	1.944662887127293960e+00	-2.410818666383218135e-15	3.972921848631008974e-13	1.946921101731901915e+00	2.892982399659860421e-15	3.933815846400230761e-13
6.800000000000083125e-07	1.941872418002491107e+00	1.350058453174599821e-14	4.002332609250727688e-13	1.944214036749573049e+00	0.000000000000000000e+00	3.960826781886298949e-13
6.900000000000082168e-07	1.939104029620440039e+00	9.643274665532869384e-16	4.032151169572338807e-13	1.941530492816003983e+00	7.714619732426289196e-15	3.988175083614294402e-13
7.000000000000081210e-07	1.936355596421859948e+00	4.339473599489769608e-14	4.062384599057235167e-13	1.938868328072471892e+00	3.857309866213146965e-15	4.015866841959398461e-13
7.100000000000080253e-07	1.933625167772420106e+00	3.664444372902475535e-14	4.093040018080830480e-13	1.936225574834409935e+00	-1.157192959863945904e-14	4.043908196369853817e-13
7.200000000000079295e-07	1.930910952520356938e+00	6.750292265872957135e-14	4.124124601227041892e-13	1.933600424157635000e+00	-2.651900533021547679e-14	4.072305338925272461e-13
7.300000000000078338e-07	1.928211305136086962e+00	1.137906410532863978e-13	4.155645580366189466e-13	1.930991211986410994e+00	-5.110935572732452170e-14	4.101064517706661078e-13
7.400000000000077380e-07	1.925524713250357900e+00	2.430105215714215748e-13	4.187610247535244727e-13	1.928396406699941945e+00	-9.932572905498969851e-14	4.130192039996947126e-13
7.500000000000076423e-07	1.922849786431251928e+00	5.178438495390842430e-13	4.220025957637694363e-13	1.925814597897600899e+00	-4.619128564790490891e-13	4.159694275329726555e-13
7.600000000000075466e-07	1.920185246060541973e+00	1.213123952923865808e-12	4.252900130978447427e-13	1.923244486283437915e+00	-2.449391765045418149e-13	4.189577658401183416e-13
7.700000000000074508e-07	1.917529916187612926e+00	1.919975985907170198e-12	4.286240255647416056e-13	1.920684874528189923e+00	-8.326967673688432721e-13	4.219848691859060769e-13
7.800000000000073551e-07	1.914882715253986900e+00	2.898768364458214028e-12	4.320053889764248071e-13	1.918134659001853093e+00	-1.872723940046887463e-12	4.250513948980672549e-13
7.900000000000072593e-07	1.912242648594729033e+00	4.599842015456743637e-12	4.354348663595470621e-13	1.915592822283116003e+00	-3.153832979363670761e-12	4.281580076251094885e-13
8.000000000000071636e-07	1.909608801634121056e+00	1.189305064498540542e-11	4.389132281553865589e-13	1.913058426363047904e+00	-8.169782296647132909e-12	4.313053795851159676e-13
8.100000000000070678e-07	1.906980333702863017e+00	1.882849378441211826e-11	4.424412524089709213e-13	1.910530606470336901e+00	-1.294995354836340074e-11	4.344941908064114472e-13
8.200000000000069721e-07	1.904356472412507051e+00	2.941295205724220675e-11	4.460197249481651435e-13	1.908008565453785943e+00	-2.023834054060099175e-11	4.377251293608783238e-13
8.300000000000068763e-07	1.901736508530255998e+00	4.531664063550218900e-11	4.496494395535215473e-13	1.905491568665218960e+00	-3.118683243217855820e-11	4.409988915906670804e-13
8.400000000000067806e-07	1.899119791303752081e+00	7.010178518052543357e-11	4.533311981195829797e-13	1.902978939292433003e+00	-4.606013711269546344e-11	4.443161823288930622e-13
8.500000000000066849e-07	1.896505724191076103e+00	1.071541394271462499e-10	4.570658108082504497e-13	1.900470054097457950e+00	-7.083081674638309202e-11	4.476777151149545585e-13
8.600000000000065891e-07	1.893893760956163907e+00	1.619742272440689209e-10	4.608540961948547222e-13	1.897964339520302968e+00	-1.097616808994152756e-10	4.510842124049909464e-13
8.700000000000064934e-07	1.891283402094233956e+00	2.434232537202912046e-10	4.646968814074234626e-13	1.895461268112828002e+00	-1.656618154823487841e-10	4.545364057779361885e-13
8.800000000000063976e-07	1.888674191555546944e+00	3.616199069600277042e-10	4.685950022597131253e-13	1.892960355271088080e+00	-2.473417983944958368e-10	4.580350361376628117e-13
8.900000000000063019e-07	1.886065713739315086e+00	5.329085731889148638e-10	4.725493033784341674e-13	1.890461156237926099e+00	-3.654323756294758443e-10	4.615808539115423619e-13
9.000000000000062061e-07	1.883457590732420917e+00	7.776404192512150416e-10	4.765606383251603263e-13	1.887963263350562082e+00	-5.350739705807180110e-10	4.651746192459053457e-13
9.100000000000061104e-07	1.880849479770358990e+00	1.124750090761046547e-09	4.806298697133239873e-13	1.885466303510543007e+00	-7.766828422159993720e-10	4.688171021986050299e-13
9.200000000000060147e-07	1.878241070900019016e+00	1.611566703910447988e-09	4.847578693207709077e-13	1.882969935855717925e+00	-1.117300179207557493e-09	4.725090829291377157e-13
9.300000000000059189e-07	1.875632084826108992e+00	2.287405965266278724e-09	4.889455181981346098e-13	1.880473849616050019e+00	-1.591800402255497310e-09	4.762513518865040185e-13
9.400000000000058232e-07	1.873022270924737942e+00	3.218251981590807964e-09	4.931937067736213429e-13	1.877977762136771034e+00	-2.244506412607837500e-09	4.800447099951473972e-13
9.500000000000057274e-07	1.870411405409410088e+00	4.486600074416856920e-09	4.975033349543679809e-13	1.875481417054180033e+00	-3.136290417387169236e-09	4.838899688392053031e-13
9.600000000000056317e-07	1.867799289636036031e+00	6.200826185623930594e-09	5.018753122249151887e-13	1.872984582610673909e+00	-4.346911459414758679e-09	4.877879508453210434e-13
9.700000000000055359e-07	1.865185748534941013e+00	8.497191714098494301e-09	5.063105577430358716e-13	1.870487050097014103e+00	-5.971182215598081459e-09	4.917394894642236580e-13
9.800000000000054402e-07	1.862570629158939006e+00	1.154940771530113798e-08	5.108100004333851073e-13	1.867988632410910066e+00	-8.137398741444933378e-09	4.957454293513171385e-13
9.900000000000053444e-07	1.859953799337646041e+00	1.557399752591477638e-08	5.153745790792585278e-13	1.865489162722099969e+00	-1.099918274304815504e-08	4.998066265464726580e-13
1.000000000000005249e-06	1.857335146429033079e+00	2.084473274535774897e-08	5.200052424128886956e-13	1.862988493234944976e+00	-1.475460853057244295e-08	5.039239486532397956e-13
1.010000000000005153e-06	1.854714576160167994e+00	2.770082037494008690e-08	5.247029492045939093e-13	1.860486494040489935e+00	-1.965046245321237901e-08	5.080982750176216528e-13
1.020000000000005057e-06	1.852092011549719919e+00	3.656689525320341541e-08	5.294686683512247324e-13	1.857983052050582007e+00	-2.599833704334416532e-08	5.123304969066721550e-13
1.030000000000004961e-06	1.849467391905553093e+00	4.797036926870632707e-08	5.343033789642521651e-13	1.855478070007374081e+00	-3.416996029772317527e-08	5.166215176870376145e-13
1.040000000000004866e-06	1.846840671891299968e+00	6.256568322725877505e-08	5.392080704579244792e-13	1.852971465562132991e+00	-4.464352100699276200e-08	5.209722530036748979e-13
1.050000000000004770e-06	1.844211820656388001e+00	8.116535529670231707e-08	5.441837426378408736e-13	1.850463170417802949e+00	-5.800681487741748631e-08	5.253836309588551485e-13
1.060000000000004674e-06	1.841580821024374925e+00	1.047733573345142146e-07	5.492314057904687340e-13	1.847953129530218952e+00	-7.498546172227816035e-08	5.298565922917172122e-13
1.070000000000004578e-06	1.838947668735037899e+00	1.346298654520947517e-07	5.543520807739511411e-13	1.845441300363410919e+00	-9.647523551290351721e-08	5.343920905584970851e-13
1.080000000000004483e-06	1.836312371735955962e+00	1.722589170534444678e-07	5.595467991106833452e-13	1.842927652194747079e+00	-1.235797392192515188e-07	5.389910923136169553e-13
1.090000000000004387e-06	1.833674949519705999e+00	2.195264025582324637e-07	5.648166030821646948e-13	1.840412165466029926e+00	-1.576509022437723518e-07	5.436545772918464892e-13
1.100000000000004291e-06	1.831035432503159033e+00	2.787004312800556176e-07	5.701625458265065905e-13	1.837894831177083965e+00	-2.003398197955083941e-07	5.483835385916824724e-13
1.110000000000004196e-06	1.828393861445583912e+00	3.525139952695859282e-07	5.755856914392379526e-13	1.835375650318481933e+00	-2.536419803750081898e-07	5.531789828601757139e-13
1.120000000000004100e-06	1.825750286902648067e+00	4.442356254641584093e-07	5.810871150778022047e-13	1.832854633340567085e+00	-3.199638405986014868e-07	5.580419304793758597e-13
1.130000000000004004e-06	1.823104768713504020e+00	5.577194111770336726e-07	5.866679030703656541e-13	1.830331799655930958e+00	-4.021634948405737566e-07	5.629734157546110090e-13
1.140000000000003908e-06	1.820457375518512944e+00	6.974585518455424715e-07	5.923291530294622319e-13	1.827807177172912079e+00	-5.036111642580693214e-07	5.679744871047900445e-13
1.150000000000003813e-06	1.817808184305272023e+00	8.686006827492438088e-07	5.980719739710568128e-13	1.825280801857783963e+00	-6.282179903536611480e-07	5.730462072549671898e-13
1.160000000000003717e-06	1.815157279980804894e+00	1.075792305813042439e-06	6.038974864396158927e-13	1.822752717323506078e+00	-7.769816540311422030e-07	5.781896534313785151e-13
1.170000000000003621e-06	1.812504754967998011e+00	1.336043178038832786e-06	6.098068226398883051e-13	1.820222974443111097e+00	-9.617517642161960401e-07	5.834059175591408300e-13
1.180000000000003525e-06	1.809850708824445986e+00	1.661637481535604148e-06	6.158011265759495159e-13	1.817691630985893037e+00	-1.195720314394075134e-06	5.886961064629306277e-13
1.190000000000003430e-06	1.807195247882056099e+00	2.062423631310750770e-06	6.218815541980938352e-13	1.815158751274771998e+00	-1.483745175020723034e-06	5.940613420708608819e-13
1.200000000000003334e-06	1.804538484905876095e+00	2.554382005720380241e-06	6.280492735585324869e-13	1.812624405863265009e+00	-1.837450994259410496e-06	5.995027616217631984e-13
1.210000000000003238e-06	1.801880538770743057e+00	3.156337916003088775e-06	6.343054649763744390e-13	1.810088671230684065e+00	-2.270617418632376366e-06	6.050215178761879378e-13
1.220000000000003142e-06	1.799221534154411106e+00	3.890290708522895048e-06	6.406513212126808226e-13	1.807551629494221102e+00	-2.799459143380076565e-06	6.106187793314225051e-13
1.230000000000003047e-06	1.796561601245991069e+00	4.781729630152827202e-06	6.470880476563669091e-13	1.805013368136739960e+00	-3.442905999374812028e-06	6.162957304407692359e-13
1.240000000000002951e-06	1.793900875468547040e+00	5.859949363536352299e-06	6.536168625217124834e-13	1.802473979749118937e+00	-4.222878163313112008e-06	6.220535718374103381e-13
1.250000000000002855e-06	1.791239497214828891e+00	7.158320183730470818e-06	6.602389970583028485e-13	1.799933561786128955e+00	-5.164572403666896586e-06	6.278935205631833106e-13
1.260000000000002759e-06	1.788577611595193018e+00	8.714566483750094296e-06	6.669556957741424181e-13	1.797392216334890991e+00	-6.296713569089619246e-06	6.338168103025590559e-13
1.270000000000002664e-06	1.785915368196804964e+00	1.057097718310061652e-05	6.737682166728372464e-13	1.794850049894997079e+00	-7.651798999730830637e-06	6.398246916221977078e-13
1.280000000000002568e-06	1.783252920853299006e+00	1.277463199991226992e-05	6.806778315057190127e-13	1.792307173169479073e+00	-9.266315869062567338e-06	6.459184322164218490e-13
1.290000000000002472e-06	1.780590427424165068e+00	1.537759200399872199e-05	6.876858260396705934e-13	1.789763700865868001e+00	-1.118094959886164225e-05	6.520993171589788062e-13
1.300000000000002376e-06	1.777928049583116898e+00	1.843710946440681772e-05	6.947935003416529691e-13	1.787219751506605059e+00	-1.344078164384342769e-05	6.583686491614127152e-13
1.310000000000002281e-06	1.775265952614802023e+00	2.201588372663803607e-05	7.020021690807802348e-13	1.784675447248156965e+00	-1.609549212897059189e-05	6.647277488385598111e-13
1.320000000000002185e-06	1.772604305219253940e+00	2.618239464002225777e-05	7.093131618488644060e-13	1.782130913708215081e+00	-1.919958240812730702e-05	6.711779549814389683e-13
1.330000000000002089e-06	1.769943279323513918e+00	3.101137641069802615e-05	7.167278235003229358e-13	1.779586279800406956e+00	-2.281267276517049197e-05	6.777206248380536683e-13
1.340000000000001993e-06	1.767283049899893932e+00	3.658447962880853989e-05	7.242475145124637335e-13	1.777041677575980083e+00	-2.699987632463491104e-05	6.843571344024789014e-13
1.350000000000001898e-06	1.764623794790407096e+00	4.299118324549329191e-05	7.318736113669832458e-13	1.774497242071950032e+00	-3.183233217522551370e-05	6.910888787127227257e-13
1.360000000000001802e-06	1.761965694536925975e+00	5.033002933701273269e-05	7.396075069537285411e-13	1.771953111165301076e+00	-3.738789537491026173e-05	6.979172721577702173e-13
1.370000000000001706e-06	1.759308932216606003e+00	5.871019987925329758e-05	7.474506109976123724e-13	1.769409425432707961e+00	-4.375209703976779289e-05	7.048437487943274062e-13
1.380000000000001610e-06	1.756653693282262063e+00	6.825347059503265380e-05	7.554043505096420900e-13	1.766866328015511023e+00	-5.101934449650522300e-05	7.118697626737088770e-13
1.390000000000001515e-06	1.754000165407255896e+00	7.908610455873303136e-05	7.634701702631349522e-13	1.764323964489431074e+00	-5.929599214454551608e-05	7.189967881793882457e-13
1.400000000000001419e-06	1.751348538334644989e+00	9.136661651083763966e-05	7.716495332955903723e-13	1.761782482738788902e+00	-6.868971607864770483e-05	7.262263203758049367e-13
1.410000000000001323e-06	1.748699003730227020e+00	1.052646046509804218e-04	7.799439214381808312e-13	1.759242032834835934e+00	-7.933439940577090418e-05	7.335598753686244622e-13
1.420000000000001227e-06	1.746051755039224052e+00	1.209723156595661329e-04	7.883548358725815518e-13	1.756702766917914937e+00	-9.137529348000186856e-05	7.409989906774309481e-13
1.430000000000001132e-06	1.743406987346346027e+00	1.387052901674054649e-04	7.968837977168896286e-13	1.754164839083174998e+00	-1.049755519152011129e-04	7.485452256210525417e-13
1.440000000000001036e-06	1.740764897238981979e+00	1.587033248900480802e-04	8.055323486412343166e-13	1.751628405269570976e+00	-1.203182167852639300e-04	7.562001617161765377e-13
1.450000000000000940e-06	1.738125682673312022e+00	1.812297696962344648e-04	8.143020515140576261e-13	1.749093623151898091e+00	-1.376076137413333211e-04	7.639654030898086723e-13
1.460000000000000844e-06	1.735489542843112964e+00	2.065686735155695334e-04	8.231944910798178851e-13	1.746560652035630046e+00	-1.570699095587335843e-04	7.718425769061344685e-13
1.470000000000000749e-06	1.732856678051112986e+00	2.350188866976246453e-04	8.322112746691498421e-13	1.744029652754387039e+00	-1.789522975017122746e-04	7.798333338082821504e-13
1.480000000000000653e-06	1.730227289582668915e+00	2.668842353696081367e-04	8.413540329420657464e-13	1.741500787569771003e+00	-2.035202042673723340e-04	7.879393483756225589e-13
1.490000000000000557e-06	1.727601579581669045e+00	3.024589391662043563e-04	8.506244206651762509e-13	1.738974220073443933e+00	-2.310519824680397512e-04	7.961623195971784893e-13
1.500000000000000462e-06	1.724979750928471001e+00	3.420074187165162869e-04	8.600241175235557640e-13	1.736450115091249025e+00	-2.618301971319456469e-04	8.045039713615824898e-13
1.510000000000000366e-06	1.722362007119782934e+00	3.857378611473925812e-04	8.695548289679547265e-13	1.733928638589226967e+00	-2.961290155061911764e-04	8.129660529643345669e-13
1.520000000000000270e-06	1.719748552150349052e+00	4.337693170427225605e-04	8.792182870981305610e-13	1.731409957581379944e+00	-3.341968869085684343e-04	8.215503396327178559e-13
1.530000000000000174e-06	1.717139590396340898e+00	4.860923932812845263e-04	8.890162515827573315e-13	1.728894240039039909e+00	-3.762341104168639419e-04	8.302586330691249159e-13
1.540000000000000079e-06	1.714535326500377099e+00	5.425246610973736335e-04	8.989505106164947147e-13	1.726381654801742993e+00	-4.223650099379217546e-04	8.390927620132019794e-13
1.549999999999999983e-06	1.711935965257098013e+00	6.084788962469155202e-04	9.090228818747068977e-13	1.723872371489993061e+00	-4.692496131327933222e-04	8.480545828439594965e-13
1.559999999999999887e-06	1.709341711503528094e+00	6.915393713543789090e-04	9.192352136438674895e-13	1.721366560417503022e+00	-5.240351084872999334e-04	8.571459801326640180e-13
1.569999999999999791e-06	1.706752770008147069e+00	7.824570478546595455e-04	9.295893858787269385e-13	1.718864392506026961e+00	-5.915298042098109761e-04	8.663688672702450975e-13
1.579999999999999696e-06	1.704169345358202081e+00	8.852699279321817744e-04	9.400873111701617115e-13	1.716366039202992910e+00	-6.678162152072092623e-04	8.757251871817808256e-13
1.589999999999999600e-06	1.701591641855149994e+00	1.001314002903616910e-03	9.507309360345876123e-13	1.713871672396459989e+00	-7.539866925733692063e-04	8.852169129215291736e-13
1.599999999999999504e-06	1.699019863407019049e+00	1.131970891921909965e-03	9.615222420625301532e-13	1.711381464333328051e+00	-8.512104931664705824e-04	8.948460483783291815e-13
1.609999999999999408e-06	1.696454213422972979e+00	1.278644145670369651e-03	9.724632471464089798e-13	1.708895587537913041e+00	-9.607222778792653961e-04	9.046146289836131381e-13
1.619999999999999313e-06	1.693894894709087051e+00	1.442733263671468419e-03	9.835560067477870521e-13	1.706414214731309054e+00	-1.083807181668471281e-03	9.145247224421005930e-13
1.629999999999999217e-06	1.691342109365308932e+00	1.625606130994925770e-03	9.948026152035158919e-13	1.703937518751516000e+00	-1.221782551600685517e-03	9.245784294853844320e-13
1.639999999999999121e-06	1.688796058683629031e+00	1.828571269887192211e-03	1.006205207070904329e-12	1.701465672474286928e+00	-1.375977053285295897e-03	9.347778846487312220e-13
1.649999999999999025e-06	1.686256943047411028e+00	2.052852191691640835e-03	1.017765958511467671e-12	1.698998848734625922e+00	-1.547707941646917504e-03	9.451252570714765001e-13
1.659999999999998930e-06	1.683724961831924105e+00	2.299566501477331732e-03	1.029487088712705367e-12	1.696537220248943933e+00	-1.738257417907588739e-03	9.556227513211450595e-13
