# wavelength [m]	effective refractive index	transmission [dB/m]	effective mode area [m]	effective refractive index	transmission [dB/m]	effective mode area [m]	
5.500000000000095572e-07	2.000537146801105060e+00	0.000000000000000000e+00	5.829284229452967079e-13	2.001263776508435122e+00	9.643274665532869384e-16	5.827322336392525914e-13
5.600000000000094614e-07	1.997852144545608111e+00	0.000000000000000000e+00	5.856892351107952936e-13	1.998615326803645065e+00	9.643274665532869384e-16	5.853681077471506384e-13
5.700000000000093657e-07	1.995243942741828036e+00	0.000000000000000000e+00	5.884753811056643463e-13	1.996044675670685109e+00	2.892982399659860421e-15	5.880237758860794777e-13
5.800000000000092699e-07	1.992705980400653942e+00	0.000000000000000000e+00	5.912873740056881072e-13	1.993545265124140098e+00	0.000000000000000000e+00	5.906996981200068106e-13
5.900000000000091742e-07	1.990232305853014028e+00	-4.821637332766435678e-16	5.941257192153639833e-13	1.991111146134100895e+00	1.928654933106573877e-15	5.933963254437372378e-13
6.000000000000090785e-07	1.987817510436004964e+00	0.000000000000000000e+00	5.969909154569022857e-13	1.988736912316279026e+00	-1.446491199829930999e-15	5.961141008570162816e-13
6.100000000000089827e-07	1.985456670524279987e+00	0.000000000000000000e+00	5.998834556639210694e-13	1.986417641967312964e+00	2.892982399659860421e-15	5.988534603337707860e-13
6.200000000000088870e-07	1.983145296717440109e+00	9.643274665532869384e-16	6.028038277908324669e-13	1.984148847256016035e+00	-1.446491199829930999e-15	6.016148336987835470e-13
6.300000000000087912e-07	1.980879289183165914e+00	-6.750292265873014880e-15	6.057525155475368954e-13	1.981926429570280979e+00	-8.630730825652005268e-14	6.043986454226024702e-13
6.400000000000086955e-07	1.978654898311408949e+00	-4.821637332766435678e-16	6.087299990677364225e-13	1.979746640174981920e+00	2.892982399659860421e-15	6.072053153439042133e-13
6.500000000000085997e-07	1.976468689964260061e+00	-1.446491199829930999e-15	6.117367555181325883e-13	1.977606045465472917e+00	0.000000000000000000e+00	6.100352593275461502e-13
6.600000000000085040e-07	1.974317514713461952e+00	-1.928654933106574666e-15	6.147732596549850652e-13	1.975501496208664998e+00	9.643274665532869384e-16	6.128888898653383002e-13
6.700000000000084082e-07	1.972198480547161958e+00	-4.821637332766438636e-15	6.178399843334959824e-13	1.973430100253253938e+00	2.892982399659860421e-15	6.157666166258171279e-13
6.800000000000083125e-07	1.970108928602708032e+00	-3.375146132936506257e-15	6.209374009751007325e-13	1.971389198265941944e+00	7.714619732426289196e-15	6.186688469584308068e-13
6.900000000000082168e-07	1.968046411545359975e+00	-1.012543839880952626e-14	6.240659799968602349e-13	1.969376342113484002e+00	8.678947198979574557e-15	6.215959863570204724e-13
7.000000000000081210e-07	1.966008674266076062e+00	-1.591140319812926525e-14	6.272261912068877006e-13	1.967389275563754092e+00	2.121520426417226531e-14	6.245484388867516424e-13
7.100000000000080253e-07	1.963993636616516936e+00	-2.989415146315200395e-14	6.304185041691751671e-13	1.965425917023946090e+00	3.953742612868459250e-14	6.275266075783120254e-13
7.200000000000079295e-07	1.961999377937678979e+00	-5.593099306009101793e-14	6.336433885407531039e-13	1.963484344072353949e+00	6.171695785940993492e-14	6.305308947926444521e-13
7.300000000000078338e-07	1.960024123170986066e+00	-7.087806879166718399e-14	6.369013143839677544e-13	1.961562779572533000e+00	1.292198805181385596e-13	6.335617025591833710e-13
7.400000000000077380e-07	1.958066230368451954e+00	-1.104154949203527862e-13	6.401927524561377333e-13	1.959659579186475042e+00	1.697216341133752195e-13	6.366194328901749992e-13
7.500000000000076423e-07	1.956124179442247923e+00	-2.459035039710951949e-13	6.435181744787638551e-13	1.957773220127132063e+00	3.201567188956795064e-13	6.397044880734213067e-13
7.600000000000075466e-07	1.954196562014260063e+00	-3.519795252919640693e-13	6.468780533881289127e-13	1.955902291010856109e+00	4.927713354087018150e-13	6.428172709455099307e-13
7.700000000000074508e-07	1.952282072243850974e+00	-6.359739641919394088e-13	6.502728635690108343e-13	1.954045482688010038e+00	7.685689908429017580e-13	6.459581851473905680e-13
7.800000000000073551e-07	1.950379498526930933e+00	-9.754172324187594696e-13	6.537030810729830389e-13	1.952201579944808918e+00	1.267126291050834289e-12	6.491276353639122234e-13
7.900000000000072593e-07	1.948487715972627043e+00	-1.595961957145983537e-12	6.571691838226470658e-13	1.950369453982734980e+00	2.027980662161089388e-12	6.523260275488530902e-13
8.000000000000071636e-07	1.946605679574981984e+00	-2.478321589042655081e-12	6.606716518030173490e-13	1.948548055592898010e+00	3.070418653504580669e-12	6.555537691367040316e-13
8.100000000000070678e-07	1.944732418006950070e+00	-3.918544660341049562e-12	6.642109672411428011e-13	1.946736408952687070e+00	4.788850198900983777e-12	6.588112692424689471e-13
8.200000000000069721e-07	1.942867027972450922e+00	-3.846220100349489262e-12	6.677876147749417263e-13	1.944933605980392999e+00	4.085855475784355369e-12	6.620989388504897512e-13
8.300000000000068763e-07	1.941008669059602898e+00	-4.720382948780906033e-12	6.714020816120938063e-13	1.943138801191000020e+00	5.931578246765217979e-12	6.654171909932800543e-13
8.400000000000067806e-07	1.939156559044791006e+00	-7.270546934084594478e-12	6.750548576798643994e-13	1.941351207002754986e+00	8.429186385134102987e-12	6.687664409212792448e-13
8.500000000000066849e-07	1.937309969602843962e+00	-1.001646939510054510e-11	6.787464357664537746e-13	1.939570089449808910e+00	1.193837403591328670e-11	6.721471062642322768e-13
8.600000000000065891e-07	1.935468222383484038e+00	-1.371129008320955702e-11	6.824773116546576633e-13	1.937794764261099978e+00	1.667225756920777853e-11	6.755596071849792263e-13
8.700000000000064934e-07	1.933630685418721074e+00	-1.972387183719244744e-11	6.862479842483055325e-13	1.936024593270142091e+00	2.313325159508519483e-11	6.790043665262482452e-13
8.800000000000063976e-07	1.931796769829492000e+00	-9.215788299707578165e-11	6.900589556920634389e-13	1.934258981124028054e+00	1.111946715119029397e-10	6.824818099510636140e-13
8.900000000000063019e-07	1.929965926803389076e+00	-1.316041801811874758e-10	6.939107314851024983e-13	1.932497372263495050e+00	1.581275249801296357e-10	6.859923660772967858e-13
9.000000000000062061e-07	1.928137644818167962e+00	-1.866142405127350960e-10	6.978038205889924398e-13	1.930739248148739984e+00	2.232302365717502071e-10	6.895364666068021842e-13
9.100000000000061104e-07	1.926311447088441930e+00	-2.627006419551919143e-10	7.017387355303040099e-13	1.928984124708390979e+00	3.129406564521982098e-10	6.931145464496348520e-13
9.200000000000060147e-07	1.924486889215204055e+00	-3.671638255958183307e-10	7.057159924982490013e-13	1.927231549991297088e+00	4.355018558032274653e-10	6.967270438437148689e-13
9.300000000000059189e-07	1.922663557020007019e+00	-5.095569014851826175e-10	7.097361114376250807e-13	1.925481102002936984e+00	6.017596256368922442e-10	7.003744004702668083e-13
9.400000000000058232e-07	1.920841064547309074e+00	-7.020554682216684273e-10	7.137996161374998101e-13	1.923732386709990916e+00	8.256118533935202255e-10	7.040570615654700358e-13
9.500000000000057274e-07	1.919019052220267918e+00	-9.603293649831330593e-10	7.179070343157700736e-13	1.921985036198333940e+00	1.124621835208028268e-09	7.077754760284890826e-13
9.600000000000056317e-07	1.917197185136604975e+00	-2.447915862547677538e-09	7.220588976999398177e-13	1.920238706971090004e+00	2.887699812838041428e-09	7.115300965262691091e-13
9.700000000000055359e-07	1.915375151492527017e+00	-3.328439897696923729e-09	7.262557421043069491e-13	1.918493078374726934e+00	3.904251396875093282e-09	7.153213795953006275e-13
9.800000000000054402e-07	1.913552661123788079e+00	-4.492855671333861906e-09	7.304981075037810246e-13	1.916747851142281966e+00	5.243307836573559880e-09	7.191497857405716897e-13
9.900000000000053444e-07	1.911729444154081081e+00	-6.021016248319692602e-09	7.347865381045158123e-13	1.915002746043918069e+00	6.993398250232929639e-09	7.230157795319781503e-13
1.000000000000005249e-06	1.909905249741788991e+00	-8.011883324656191138e-09	7.391215824115624066e-13	1.913257502635810958e+00	9.262775145539632285e-09	7.269198296983140830e-13
1.010000000000005153e-06	1.908079844917019985e+00	-1.058676592141998317e-08	7.435037932936409435e-13	1.911511878099344974e+00	1.218715893327105835e-08	7.308624092190949886e-13
1.020000000000005057e-06	1.906253013501566063e+00	-1.389385561705277716e-08	7.479337280453023356e-13	1.909765646163205099e+00	1.592527984117448516e-08	7.348439954143243594e-13
1.030000000000004961e-06	1.904424555105070915e+00	-1.811299562917593081e-08	7.524119484464766927e-13	1.908018596101693998e+00	2.067484331907727923e-08	7.388650700323623333e-13
1.040000000000004866e-06	1.902594284191372997e+00	-2.346163891234225368e-08	7.569390208196635921e-13	1.906270531803210933e+00	2.667043841203273569e-08	7.429261193361061608e-13
1.050000000000004770e-06	1.900762029209438042e+00	-3.020071705574145753e-08	7.615155160847609661e-13	1.904521270903346108e+00	3.419176347272368135e-08	7.470276341874740012e-13
1.060000000000004674e-06	1.898927631783815073e+00	-3.864346966660030290e-08	7.661420098118143246e-13	1.902770643977478082e+00	4.357347965819841933e-08	7.511701101304772020e-13
1.070000000000004578e-06	1.897090945960044017e+00	-4.916399313481085598e-08	7.708190822715954366e-13	1.901018493788350971e+00	5.521275100443409458e-08	7.553540474728453139e-13
1.080000000000004483e-06	1.895251837500766090e+00	-6.220881208277755640e-08	7.755473184842558381e-13	1.899264674584349111e+00	6.957880090879052275e-08	7.595799513664161925e-13
1.090000000000004387e-06	1.893410183228668053e+00	-7.830940260756772579e-08	7.803273082661119124e-13	1.897509051444630002e+00	8.722867791574706511e-08	7.638483318863135002e-13
1.100000000000004291e-06	1.891565870412788897e+00	-9.809823483774966252e-08	7.851596462745637669e-13	1.895751499667623019e+00	1.088190542577966883e-07	7.681597041090436832e-13
1.110000000000004196e-06	1.889718796194856942e+00	-1.223259876325029395e-07	7.900449320514039736e-13	1.893991904199574972e+00	1.351257881942624143e-07	7.725145881895536214e-13
1.120000000000004100e-06	1.887868867052810984e+00	-1.518858472336259162e-07	7.949837700643961183e-13	1.892230159100305897e+00	1.670649338022011238e-07	7.769135094373998062e-13
1.130000000000004004e-06	1.886015998298667062e+00	-1.878356911518685930e-07	7.999767697473518623e-13	1.890466167043316048e+00	2.057124373486670106e-07	7.813569983919728038e-13
1.140000000000003908e-06	1.884160113608313925e+00	-2.314285956523721372e-07	8.050245455387116685e-13	1.888699838847847090e+00	2.523391365683846088e-07	7.858455908970201498e-13
1.150000000000003813e-06	1.882301144580899921e+00	-2.841450033388445640e-07	8.101277169186863415e-13	1.886931093040566942e+00	3.084341513586702644e-07	7.903798281743296432e-13
1.160000000000003717e-06	1.880439030325703920e+00	-3.477305190476867184e-07	8.152869084450674254e-13	1.885159855444747956e+00	3.757443960876244599e-07	7.949602568968019487e-13
1.170000000000003621e-06	1.878573717074542904e+00	-4.242338065314435820e-07	8.205027497877685574e-13	1.883386058795015972e+00	4.563116926383435483e-07	7.995874292608785793e-13
1.180000000000003525e-06	1.876705157817923020e+00	-5.160491226165936205e-07	8.257758757620922249e-13	1.881609642375871916e+00	5.525098593218185020e-07	8.042619030583768581e-13
1.190000000000003430e-06	1.874833311963288951e+00	-6.259598489895249120e-07	8.311069263608870170e-13	1.879830551682335926e+00	6.670891238252606750e-07	8.089842417478129405e-13
1.200000000000003334e-06	1.872958145013805087e+00	-7.571777226406386555e-07	8.364965467855913339e-13	1.878048738101165016e+00	8.032134270983463429e-07	8.137550145252600520e-13
1.210000000000003238e-06	1.871079628266326011e+00	-9.133823276947135147e-07	8.419453874762280743e-13	1.876264158611274935e+00	9.644984706834422940e-07	8.185747963947282099e-13
1.220000000000003142e-06	1.869197738527174968e+00	-1.098751053002169433e-06	8.474541041404273457e-13	1.874476775502025960e+00	1.155042785142556958e-06	8.234441682381709458e-13
1.230000000000003047e-06	1.867312457844594986e+00	-1.317977604209248469e-06	8.530233577815616114e-13	1.872686556108202893e+00	1.379448027831016531e-06	8.283637168851567937e-13
1.240000000000002951e-06	1.865423773256702056e+00	-1.576278930978260228e-06	8.586538147259488457e-13	1.870893472560547055e+00	1.642827237090017351e-06	8.333340351821300159e-13
1.250000000000002855e-06	1.863531676553932037e+00	-1.879380828216875028e-06	8.643461466493710840e-13	1.869097501550804896e+00	1.950797804631653750e-06	8.383557220615248139e-13
1.260000000000002759e-06	1.861636164055030962e+00	-2.230540763210812765e-06	8.701010306028108270e-13	1.867298624110383054e+00	2.300739825925283328e-06	8.434293826104203105e-13
1.270000000000002664e-06	1.859737236395681004e+00	-2.652128598155348981e-06	8.759191490373806606e-13	1.865496825401665060e+00	2.715334879743346446e-06	8.485556281392479354e-13
1.280000000000002568e-06	1.857834898328929896e+00	-3.160945014366575224e-06	8.818011898287715323e-13	1.863692094521194997e+00	3.219239335227223036e-06	8.537350762501473218e-13
1.290000000000002472e-06	1.855929158536713919e+00	-3.761671794207013459e-06	8.877478463013767992e-13	1.861884424313968056e+00	3.811082860877009340e-06	8.589683509049896930e-13
1.300000000000002376e-06	1.854020029451681983e+00	-4.469501993805038824e-06	8.937598172514622719e-13	1.860073811198108107e+00	4.504970108070559168e-06	8.642560824936072381e-13
1.310000000000002281e-06	1.852107527088717065e+00	-5.301700489134771380e-06	8.998378069702760775e-13	1.858260254999271943e+00	5.316893654205069144e-06	8.695989079017246122e-13
1.320000000000002185e-06	1.850191670885519057e+00	-6.277778406293524946e-06	9.059825252666643557e-13	1.856443758794162013e+00	6.264870191766585053e-06	8.749974705788506541e-13
1.330000000000002089e-06	1.848272483551683942e+00	-7.419645869336248707e-06	9.121946874894603674e-13	1.854624328762608965e+00	7.369096529758323080e-06	8.804524206060960891e-13
1.340000000000001993e-06	1.846349990925731932e+00	-8.751764522914603787e-06	9.184750145496658000e-13	1.852801974047624034e+00	8.652066550412209142e-06	8.859644147640357618e-13
1.350000000000001898e-06	1.844424221839592981e+00	-1.030127740141039554e-05	9.248242329425033293e-13	1.850976706623002954e+00	1.013869083171999018e-05	8.915341166004818095e-13
1.360000000000001802e-06	1.842495207990112904e+00	-1.209811744313806479e-05	9.312430747693621495e-13	1.849148541167974003e+00	1.185639001515125932e-05	8.971621964983541749e-13
1.370000000000001706e-06	1.840562983817076059e+00	-1.417511024398392704e-05	9.377322777598460928e-13	1.847317494948435890e+00	1.383516810706638424e-05	9.028493317435911042e-13
1.380000000000001610e-06	1.838627586387437951e+00	-1.656803082226760801e-05	9.442925852938492140e-13	1.845483587704469963e+00	1.610766788681922796e-05	9.085962065931001362e-13
1.390000000000001515e-06	1.836689055285295913e+00	-1.931566754130325419e-05	9.509247464238751264e-13	1.843646841543634896e+00	1.870919799946063134e-05	9.144035123428761030e-13
1.400000000000001419e-06	1.834747432507320086e+00	-2.245985307199736310e-05	9.576295158975627296e-13	1.841807280839796057e+00	2.167775359456023459e-05	9.202719473962014235e-13
1.410000000000001323e-06	1.832802762363259896e+00	-2.604549109731781281e-05	9.644076541805992742e-13	1.839964932137093001e+00	2.505400659133754352e-05	9.262022173320077553e-13
1.420000000000001227e-06	1.830855091381250910e+00	-3.012059149517357001e-05	9.712599274800730675e-13	1.838119824058757956e+00	2.888129619915831323e-05	9.321950349734383821e-13
1.430000000000001132e-06	1.828904468217620094e+00	-3.473629961595089928e-05	9.781871077683342822e-13	1.836271987220523094e+00	3.320561960381957748e-05	9.382511204565879118e-13
1.440000000000001036e-06	1.826950943570919916e+00	-3.994698097664610588e-05	9.851899728074874592e-13	1.834421454148291053e+00	3.807563138282890375e-05	9.443712012995223810e-13
1.450000000000000940e-06	1.824994570099943036e+00	-4.581028578725960393e-05	9.922693061746182948e-13	1.832568259199883087e+00	4.354266354832052170e-05	9.505560124714720241e-13
1.460000000000000844e-06	1.823035402345462019e+00	-5.238737755367212177e-05	9.994258972878068149e-13	1.830712438490557981e+00	4.966079527604024170e-05	9.568062964623919932e-13
1.470000000000000749e-06	1.821073496655505997e+00	-5.974314721299819398e-05	1.006660541433059213e-12	1.828854029822150062e+00	5.648696105645077816e-05	9.631228033528074211e-13
1.480000000000000653e-06	1.819108911113918925e+00	-6.794657199888970347e-05	1.013974039792282548e-12	1.826993072615558988e+00	6.408114471027421188e-05	9.695062908839262676e-13
1.490000000000000557e-06	1.817141705472052893e+00	-7.707119059691057666e-05	1.021367199472337850e-12	1.825129607846426083e+00	7.250665721837984293e-05	9.759575245282689523e-13
1.500000000000000462e-06	1.815171941083363993e+00	-8.719571322010232948e-05	1.028840833535343282e-12	1.823263677983816944e+00	8.183051315118764683e-05	9.824772775605195240e-13
1.510000000000000366e-06	1.813199680840781980e+00	-9.840475907278545102e-05	1.036395761030311172e-12	1.821395326931722014e+00	9.212393554226114474e-05	9.890663311289077536e-13
1.520000000000000270e-06	1.811224989116654083e+00	-1.107897374120997116e-04	1.044032807026195257e-12	1.819524599973211032e+00	1.034629625910383382e-04	9.957254743269973437e-13
1.530000000000000174e-06	1.809247931705125989e+00	-1.244499063494097497e-04	1.051752802646531086e-12	1.817651543717113016e+00	1.159291928997293599e-04	1.002455504265979212e-12
1.540000000000000079e-06	1.807268575766824981e+00	-1.394934956392543304e-04	1.059556585105724535e-12	1.815776206047047925e+00	1.296106422628145473e-04	1.009257226147421786e-12
1.549999999999999983e-06	1.805286989775696904e+00	-1.560388400010384526e-04	1.067444997747112009e-12	1.813898636072702963e+00	1.446026866135249563e-04	1.016131453336606941e-12
1.559999999999999887e-06	1.803303243467861972e+00	-1.742156886626571716e-04	1.075418890082945820e-12	1.812018884083197889e+00	1.610090675653482167e-04	1.023079007436437866e-12
1.569999999999999791e-06	1.801317407792403014e+00	-1.941662441318051688e-04	1.083479117836316248e-12	1.810137001502450937e+00	1.789429216558046764e-04	1.030100718361862697e-12
1.579999999999999696e-06	1.799329554863922098e+00	-2.160461830436727598e-04	1.091626542985330178e-12	1.808253040846403925e+00	1.985277530675905373e-04	1.037197424415056676e-12
1.589999999999999600e-06	1.797339757916811998e+00	-2.400252555969402532e-04	1.099862033809443714e-12	1.806367055682013945e+00	2.198982601134814819e-04	1.044369972361151581e-12
1.599999999999999504e-06	1.795348091261095069e+00	-2.662874564413782717e-04	1.108186464938191519e-12	1.804479100587907059e+00	2.432009549369800253e-04	1.051619217504714191e-12
1.609999999999999408e-06	1.793354630239782921e+00	-2.950305346763676330e-04	1.116600717402375480e-12	1.802589231116618951e+00	2.685944006682506224e-04	1.058946023766953379e-12
1.619999999999999313e-06	1.791359451187620078e+00	-3.264646758922146435e-04	1.125105678687949184e-12	1.800697503758295070e+00	2.962489538049305855e-04	1.066351263763649972e-12
1.629999999999999217e-06	1.789362631391151925e+00	-3.608100584629280036e-04	1.133702242792580839e-12	1.798803975905790997e+00	3.263458731418855284e-04	1.073835818883921072e-12
1.639999999999999121e-06	1.787364249050050979e+00	-3.982931725450986277e-04	1.142391310285005697e-12	1.796908705821101071e+00	3.590756105124537291e-04	1.081400579369763486e-12
1.649999999999999025e-06	1.785364383239588904e+00	-4.391414517828422996e-04	1.151173788367469111e-12	1.795011752603010047e+00	3.946350692339911583e-04	1.089046444396499463e-12
1.659999999999998930e-06	1.783363113874222972e+00	-4.835764620243274809e-04	1.160050590941191533e-12	1.793113176155936017e+00	4.332237391621167636e-04	1.096774322154082329e-12
