# wavelength [m]	effective refractive index	transmission [dB/m]	effective mode area [m]	effective refractive index	transmission [dB/m]	effective mode area [m]	
5.500000000000095572e-07	2.007658317497603040e+00	4.497623304002202182e-12	9.081438309625206039e-13	2.009302471649195176e+00	4.715561311445317964e-13	9.121673829938546979e-13
5.600000000000094614e-07	2.005207430846652983e+00	-2.979771871649759491e-13	9.117105798694017232e-13	2.006935186396761051e+00	4.665416283182297344e-12	9.153518350126963554e-13
5.700000000000093657e-07	2.002836006489050913e+00	-3.061739706306795026e-13	9.153104539888066025e-13	2.004649754900866832e+00	5.276799896976381257e-12	9.185490021517504074e-13
5.800000000000092699e-07	2.000537444010126897e+00	-3.370324495603869566e-13	9.189440170829639058e-13	2.002439589869347003e+00	5.988473567291783643e-12	9.217593015559009859e-13
5.900000000000091742e-07	1.998305752688741999e+00	-3.418540868931537052e-13	9.226118225914082697e-13	2.000298712947762070e+00	6.695325600274311945e-12	9.249831345273311406e-13
6.000000000000090785e-07	1.996135485177428004e+00	-3.664444372902646182e-13	9.263144146831166818e-13	1.998221688409610008e+00	7.634580552695663560e-12	9.282208880204516657e-13
6.100000000000089827e-07	1.994021679527109958e+00	-3.418540868931537052e-13	9.300523292040844642e-13	1.996203565190888929e+00	8.379041356873428402e-12	9.314729359832558477e-13
6.200000000000088870e-07	1.991959808367282925e+00	-3.023166607644660330e-13	9.338260945327982500e-13	1.994239826079909017e+00	9.265258298634098901e-12	9.347396405633223439e-13
6.300000000000087912e-07	1.989945734241463926e+00	4.621057219720892653e-12	9.376362323542591341e-13	1.992326343062150951e+00	7.950879961724574037e-12	9.380213531946509393e-13
6.400000000000086955e-07	1.987975670253339988e+00	7.498610379911887242e-12	9.414832583597065875e-13	1.990459337975619913e+00	8.267179370753461896e-12	9.413184155777584812e-13
6.500000000000085997e-07	1.986046145308288935e+00	1.173297228553799539e-11	9.453676828846422914e-13	1.988635347761362970e+00	8.157246039566595586e-12	9.446311605684361823e-13
6.600000000000085040e-07	1.984153973342299926e+00	1.741189673605124919e-11	9.492900114858429388e-13	1.986851193701191898e+00	7.848661250270111746e-12	9.479599129811730239e-13
6.700000000000084082e-07	1.982296226019953922e+00	2.500597553512129987e-11	9.532507454680159919e-13	1.985103954124264991e+00	6.696289927740862851e-12	9.513049903197264794e-13
6.800000000000083125e-07	1.980470208458295911e+00	3.501087300054252421e-11	9.572503823635834213e-13	1.983390940139373004e+00	4.820673005297206493e-12	9.546667034415702857e-13
6.900000000000082168e-07	1.978673437596520923e+00	4.861753355347839986e-11	9.612894163706061874e-13	1.981709674012861910e+00	1.727110492596593754e-12	9.580453571634383114e-13
7.000000000000081210e-07	1.976903622884659040e+00	6.591081801095047758e-11	9.653683387529221584e-13	1.980057869865371911e+00	-2.862123920731099553e-12	9.614412508142630901e-13
7.100000000000080253e-07	1.975158649009423950e+00	8.777887196959242821e-11	9.694876382062147287e-13	1.978433416405565026e+00	-9.278758883185639688e-12	9.648546787408459099e-13
7.200000000000079295e-07	1.973436560413684981e+00	1.156141842910012480e-10	9.736478011932196846e-13	1.976834361457312061e+00	-1.774362538461672885e-11	9.682859307712284075e-13
7.300000000000078338e-07	1.971735547398371979e+00	1.498478093525966963e-10	9.778493122509379830e-13	1.975258898069153890e+00	-2.928325001318912027e-11	9.717352926399233825e-13
7.400000000000077380e-07	1.970053933623487019e+00	1.920814950761018710e-10	9.820926542724145449e-13	1.973705352022711024e+00	-4.351334827350195813e-11	9.752030463789107128e-13
7.500000000000076423e-07	1.968390164848540014e+00	2.428658724446546143e-10	9.863783087653949668e-13	1.972172170580358097e+00	-6.211763592220750846e-11	9.786894706776317700e-13
7.600000000000075466e-07	1.966742798773013057e+00	3.027747163005141352e-10	9.907067560898360147e-13	1.970657912332796968e+00	-8.455319659568185718e-11	9.821948412151325257e-13
7.700000000000074508e-07	1.965110495855094008e+00	3.732525891880757897e-10	9.950784756761288348e-13	1.969161238024742966e+00	-1.116059571792454523e-10	9.857194309668786937e-13
7.800000000000073551e-07	1.963492011001781057e+00	4.547884051323163964e-10	9.994939462256597574e-13	1.967680902251853992e+00	-1.433766898932427153e-10	9.892635104887179899e-13
7.900000000000072593e-07	1.961886186036650104e+00	1.038542108366810622e-10	1.003953645893373865e-12	1.966215745935183890e+00	-1.744805419794950160e-09	9.928273481780278766e-13
8.000000000000071636e-07	1.960291942862739889e+00	1.629713418475024429e-13	1.008458052463933363e-12	1.964764689490638094e+00	-4.817399113818118776e-10	9.964112105285388906e-13
8.100000000000070678e-07	1.958708277247819041e+00	-6.345274729921093136e-13	1.013007643498167523e-12	1.963326726620675977e+00	-5.870975087530558752e-10	1.000015362336865850e-12
8.200000000000069721e-07	1.957134253167793991e+00	-2.070411070690400797e-12	1.017602896481446591e-12	1.961900918664041926e+00	-7.080752824326047614e-10	1.003640066934768294e-12
8.300000000000068763e-07	1.955568997651407903e+00	-4.572358682664817680e-12	1.022244288954296351e-12	1.960486389446675970e+00	-8.441910686883932290e-10	1.007285586376410564e-12
8.400000000000067806e-07	1.954011696075860005e+00	1.884913039182812924e-10	1.026932298633390860e-12	1.959082320583430015e+00	1.064247221197274602e-09	1.010952181624786222e-12
8.500000000000066849e-07	1.952461587868645987e+00	2.086438193133904844e-10	1.031667403519488817e-12	1.957687947185899002e+00	1.310264515742161060e-09	1.014640112724950991e-12
8.600000000000065891e-07	1.950917962575777986e+00	2.299255621716804168e-10	1.036450082002324945e-12	1.956302553936537958e+00	1.592975434689625959e-09	1.018349638964989160e-12
8.700000000000064934e-07	1.949380156261051988e+00	2.524541804440471487e-10	1.041280812950633949e-12	1.954925471493716094e+00	1.913789824787983901e-09	1.022081019028629817e-12
8.800000000000063976e-07	1.947847548204681978e+00	2.765912969304057704e-10	1.046160075797111002e-12	1.953556073196059062e+00	2.275384659074540540e-09	1.025834511137961962e-12
8.900000000000063019e-07	1.946319557873130046e+00	3.015828075519371738e-10	1.051088350615181021e-12	1.952193772037879027e+00	2.678757052138911067e-09	1.029610373188006854e-12
9.000000000000062061e-07	1.944795642134834024e+00	1.451509559723310349e-09	1.056066118188342086e-12	1.950838017890432985e+00	-9.187195990323667916e-11	1.033408862872737041e-12
9.100000000000061104e-07	1.943275292699240042e+00	1.570785295364850902e-09	1.061093860074454295e-12	1.949488294946384981e+00	-9.660873641904921717e-11	1.037230237808524787e-12
9.200000000000060147e-07	1.941758033758780089e+00	1.693052374803198629e-09	1.066172058660730114e-12	1.948144119367154037e+00	-9.940673256331672728e-11	1.041074755642491219e-12
9.300000000000059189e-07	1.940243419815631087e+00	1.817777524949320650e-09	1.071301197215740931e-12	1.946805037114941905e+00	-1.014144623487270863e-10	1.044942674163323085e-12
9.400000000000058232e-07	1.938731033676752036e+00	-5.563908152833095977e-09	1.076481759883387486e-12	1.945470621952990031e+00	5.063008497615210621e-11	1.048834251402038135e-12
9.500000000000057274e-07	1.937220484602504067e+00	-6.590856635682766591e-09	1.081714231914567992e-12	1.944140473599333063e+00	2.078511421359216833e-10	1.052749745731071905e-12
9.600000000000056317e-07	1.935711406595453044e+00	1.738999685583908071e-09	1.086999099514170733e-12	1.942814216020670948e+00	3.455929772089566263e-09	1.056689415953139257e-12
9.700000000000055359e-07	1.934203456817354949e+00	1.418490022951969601e-09	1.092336849731702037e-12	1.941491495854366978e+00	4.267027532141291284e-09	1.060653521393010422e-12
9.800000000000054402e-07	1.932696314123413917e+00	9.177755223359189735e-10	1.097727970887484834e-12	1.940171980947648089e+00	5.288502971893712846e-09	1.064642321978670634e-12
9.900000000000053444e-07	1.931189677703990082e+00	1.859580156637549990e-10	1.103172952315423655e-12	1.938855359004195034e+00	6.577687287653458157e-09	1.068656078323347521e-12
1.000000000000005249e-06	1.929683265824782001e+00	-8.405545898113152765e-10	1.108672284447220548e-12	1.937541336329168029e+00	8.198602179566207038e-09	1.072695051802230699e-12
1.010000000000005153e-06	1.928176814657444949e+00	-2.243748933382468726e-09	1.114226458826336375e-12	1.936229636664593023e+00	1.023662630796635242e-08	1.076759504626352970e-12
1.020000000000005057e-06	1.926670077193229025e+00	-4.118786296394704411e-09	1.119835968118262110e-12	1.934920000107734017e+00	1.278970544842968392e-08	1.080849699913611135e-12
1.030000000000004961e-06	1.925162822232983961e+00	-6.583415884939555194e-09	1.125501306117307938e-12	1.933612182105777899e+00	1.597831206567532763e-08	1.084965901757087754e-12
1.040000000000004866e-06	1.923654833447437040e+00	-9.779575613648886352e-09	1.131222967750050112e-12	1.932305952520751990e+00	1.994513962153130199e-08	1.089108375290897633e-12
1.050000000000004770e-06	1.922145908502221001e+00	-1.387185352150556238e-08	1.137001449075544412e-12	1.931001094759136061e+00	2.485976509789115447e-08	1.093277386753669698e-12
1.060000000000004674e-06	1.920635858242526917e+00	-1.906578781465260655e-08	1.142837247282522092e-12	1.929697404961081997e+00	3.092450728556655601e-08	1.097473203549926779e-12
1.070000000000004578e-06	1.919124505932852998e+00	-2.559506300905590267e-08	1.148730860683606277e-12	1.928394691244669890e+00	3.837298800703837234e-08	1.101696094309475409e-12
1.080000000000004483e-06	1.917611686547584959e+00	-3.374003369778464044e-08	1.154682788706729162e-12	1.927092773000971038e+00	4.748383424437061688e-08	1.105946328944874472e-12
1.090000000000004387e-06	1.916097246108539043e+00	-4.383117057656618036e-08	1.160693531883819262e-12	1.925791480236044073e+00	5.857912557063272415e-08	1.110224178707298374e-12
1.100000000000004291e-06	1.914581041065998912e+00	-5.748974151864860421e-08	1.166763591836951390e-12	1.924490652956380998e+00	6.811073772680566555e-08	1.114529916243203760e-12
1.110000000000004196e-06	1.913062937719917977e+00	-7.256648142928922871e-08	1.172893471261789917e-12	1.923190140594509101e+00	8.399268815733379866e-08	1.118863815637369967e-12
1.120000000000004100e-06	1.911542811678432985e+00	-9.092609350824125809e-08	1.179083673908669438e-12	1.921889801471859061e+00	1.031598166906075872e-07	1.123226152478342420e-12
1.130000000000004004e-06	1.910020547350866016e+00	-1.131849768941083482e-07	1.185334704561659190e-12	1.920589502296109918e+00	1.261991518254117654e-07	1.127617203899358079e-12
1.140000000000003908e-06	1.908496037472777962e+00	-1.400757539084492090e-07	1.191647069015058073e-12	1.919289117690559099e+00	1.537916186007784688e-07	1.132037248629400013e-12
1.150000000000003813e-06	1.906969182660757989e+00	-1.724560849837715467e-07	1.198021274047825356e-12	1.917988529753209992e+00	1.867206799248744762e-07	1.136486567040967282e-12
1.160000000000003717e-06	1.905439890994824026e+00	-2.113328250817331780e-07	1.204457827395973735e-12	1.916687627643451020e+00	2.258946375985622963e-07	1.140965441196805590e-12
1.170000000000003621e-06	1.903908077626510043e+00	-2.578927872072719137e-07	1.210957237722969748e-12	1.915386307194405058e+00	2.723602630663109663e-07	1.145474154895628811e-12
1.180000000000003525e-06	1.902373664410818899e+00	-3.135204624369212987e-07	1.217520014588164196e-12	1.914084470549133110e+00	3.273280627711901113e-07	1.150012993717048460e-12
1.190000000000003430e-06	1.900836579560416961e+00	-3.798423703448154790e-07	1.224146668413433300e-12	1.912782025819067089e+00	3.921942908249625155e-07	1.154582245065532816e-12
1.200000000000003334e-06	1.899296757320507956e+00	-4.587448610247256277e-07	1.230837710448076836e-12	1.911478886763110063e+00	4.685493762232733418e-07	1.159182198213724038e-12
1.210000000000003238e-06	1.897754137663018925e+00	-5.524207944022941039e-07	1.237593652731911867e-12	1.910174972486039957e+00	5.582367130080741189e-07	1.163813144344949517e-12
1.220000000000003142e-06	1.896208665998754928e+00	-6.633965058257760190e-07	1.244415008056923751e-12	1.908870207154881093e+00	6.633532031084513915e-07	1.168475376595123745e-12
1.230000000000003047e-06	1.894660292906348964e+00	-7.945730258991964807e-07	1.251302289927176359e-12	1.907564519732052988e+00	7.862749430304809535e-07	1.173169190093984151e-12
1.240000000000002951e-06	1.893108973876874934e+00	-9.492438561088003301e-07	1.258256012517375693e-12	1.906257843724197931e+00	9.297173881095187570e-07	1.177894882005774421e-12
1.250000000000002855e-06	1.891554669073078898e+00	-1.131118042518796322e-06	1.265276690629981304e-12	1.904950116945610006e+00	1.096720439020793329e-06	1.182652751569396878e-12
1.260000000000002759e-06	1.889997343102318927e+00	-1.344355288684034595e-06	1.272364839650924258e-12	1.903641281295374910e+00	1.290688807341838290e-06	1.187443100138057585e-12
1.270000000000002664e-06	1.888436964802266083e+00	-1.593536262926922878e-06	1.279520975504178238e-12	1.902331282547286007e+00	1.515405229457532198e-06	1.192266231218424534e-12
1.280000000000002568e-06	1.886873507038578923e+00	-1.883678326985749633e-06	1.286745614604989913e-12	1.901020070151719921e+00	1.775032724676693630e-06	1.197122450509443548e-12
1.290000000000002472e-06	1.885306946513789939e+00	-2.220189027531396332e-06	1.294039273812097951e-12	1.899707597048738927e+00	2.074102478048347860e-06	1.202012065940656570e-12
1.300000000000002376e-06	1.883737263586674038e+00	-2.608837305865651603e-06	1.301402470378789005e-12	1.898393819491680956e+00	2.417514822511019551e-06	1.206935387710180685e-12
1.310000000000002281e-06	1.882164442101394997e+00	-3.784653745913703100e-06	1.308835721620638285e-12	1.897078696880579063e+00	2.816964237524359621e-06	1.211892728315922473e-12
1.320000000000002185e-06	1.880588469226152970e+00	-3.764033533062445248e-06	1.316339546291893673e-12	1.895762191604813962e+00	3.229472764918657676e-06	1.216884402605820753e-12
1.330000000000002089e-06	1.879009335299776984e+00	-4.419793434375128151e-06	1.323914461648343153e-12	1.894444268894444949e+00	3.760690243037699023e-06	1.221910727826902067e-12
1.340000000000001993e-06	1.877427033687369073e+00	-5.182065935649918744e-06	1.331560986312355036e-12	1.893124896679603930e+00	4.373772041937250494e-06	1.226972023613434388e-12
1.350000000000001898e-06	1.875841560642840022e+00	-6.066537235245723339e-06	1.339279638744803946e-12	1.891804045457579075e+00	5.080302106747559197e-06	1.232068612065495137e-12
1.360000000000001802e-06	1.874252915178910905e+00	-7.090727183993759983e-06	1.347070937489647288e-12	1.890481688167044982e+00	5.893193431772728845e-06	1.237200817773406948e-12
1.370000000000001706e-06	1.872661098943743996e+00	-8.274120100761769522e-06	1.354935401119706342e-12	1.889157800069005022e+00	6.826800904735107187e-06	1.242368967853953064e-12
1.380000000000001610e-06	1.871066116103939914e+00	-9.638262691351372967e-06	1.362873548181950776e-12	1.887832358634111918e+00	7.896983443762459380e-06	1.247573391986130083e-12
1.390000000000001515e-06	1.869467973233430946e+00	-1.120682711202403720e-05	1.370885897142416609e-12	1.886505343435910920e+00	9.121184168920673329e-06	1.252814422447045495e-12
1.400000000000001419e-06	1.867866679208002090e+00	-1.300569858943188909e-05	1.378972966330844895e-12	1.885176736049718027e+00	1.051848428377559082e-05	1.258092394147402843e-12
1.410000000000001323e-06	1.866262245105037909e+00	-1.506298113152693653e-05	1.387135273885069367e-12	1.883846519956765109e+00	1.210962664553160301e-05	1.263407644666921650e-12
1.420000000000001227e-06	1.864654684108250970e+00	-1.740906132939732591e-05	1.395373337695307570e-12	1.882514680453319045e+00	1.391709176642478544e-05	1.268760514289696365e-12
1.430000000000001132e-06	1.863044011417053003e+00	-2.007658913479598646e-05	1.403687675348368973e-12	1.881181204564511988e+00	1.596505844678404765e-05	1.274151346039310139e-12
1.440000000000001036e-06	1.861430244160344083e+00	-2.310050032447562854e-05	1.412078804071935194e-12	1.879846080962561006e+00	1.827944737893822237e-05	1.279580485713948597e-12
1.450000000000000940e-06	1.859813401314422965e+00	-2.651796215291273557e-05	1.420547240678898575e-12	1.878509299889185913e+00	2.088787754921616040e-05	1.285048281921280372e-12
1.460000000000000844e-06	1.858193503624814058e+00	-3.036839387423770039e-05	1.429093501511993994e-12	1.877170853081931989e+00	2.381966431004541569e-05	1.290555086113418604e-12
1.470000000000000749e-06	1.856570573531787005e+00	-3.469344485152832315e-05	1.437718102388720269e-12	1.875830733704239917e+00	2.710575601154426647e-05	1.296101252621666168e-12
1.480000000000000653e-06	1.854944635099339045e+00	-3.953699728490797118e-05	1.446421558546508542e-12	1.874488936278986939e+00	3.077870986186131123e-05	1.301687138691181525e-12
1.490000000000000557e-06	1.853315713947466969e+00	-4.494521442521083382e-05	1.455204384588646763e-12	1.873145456625368022e+00	3.487263825199795941e-05	1.307313104515703548e-12
1.500000000000000462e-06	1.851683837187539039e+00	-5.096663308976218663e-05	1.464067094430464883e-12	1.871800291798884963e+00	3.942319014562987816e-05	1.312979513272076820e-12
1.510000000000000366e-06	1.850049033360589013e+00	-5.765231133249217217e-05	1.473010201246428620e-12	1.870453440034314907e+00	4.446749973987199490e-05	1.318686731154789855e-12
1.520000000000000270e-06	1.848411332378377958e+00	-6.505605132229604461e-05	1.482034217417864911e-12	1.869104900691455962e+00	5.004418913713813168e-05	1.324435127410446080e-12
1.530000000000000174e-06	1.846770765467063091e+00	-7.323475409892453718e-05	1.491139654481591499e-12	1.867754674203532028e+00	5.619343423259255991e-05	1.330225074372164525e-12
1.540000000000000079e-06	1.845127365113343076e+00	-8.224883225463328128e-05	1.500327023079438916e-12	1.866402762028090079e+00	6.295695449587839800e-05	1.336056947494048984e-12
1.549999999999999983e-06	1.843481165012931022e+00	-9.216503435418569765e-05	1.509596832908781005e-12	1.865049166600279973e+00	7.037729426128148664e-05	1.341931125385630916e-12
1.559999999999999887e-06	1.841832200021243038e+00	-1.030462772627247176e-04	1.518949592674855311e-12	1.863693891288370930e+00	7.850236029509599211e-05	1.347847989845212140e-12
1.569999999999999791e-06	1.840180506106174008e+00	-1.149735114830213137e-04	1.528385810042574556e-12	1.862336940351394965e+00	8.737722286110744430e-05	1.353807925896134758e-12
1.579999999999999696e-06	1.838526120302764966e+00	-1.277509384665805037e-04	1.537905991617712726e-12	1.860978318898798944e+00	9.676359812597388837e-05	1.359811321835337835e-12
1.589999999999999600e-06	1.836869080670151089e+00	-1.413008237203535020e-04	1.547510642776352585e-12	1.859618032852037972e+00	1.074805374502859842e-04	1.365858569208934364e-12
1.599999999999999504e-06	1.835209426249410969e+00	-1.566030405929477363e-04	1.557200267868651197e-12	1.858256088907868087e+00	1.188503552025889967e-04	1.371950062921603276e-12
1.609999999999999408e-06	1.833547197024087971e+00	-1.732240485554513605e-04	1.566975369935163021e-12	1.856892494503542990e+00	1.311591116246069058e-04	1.378086201239284644e-12
1.619999999999999313e-06	1.831882433881659944e+00	-1.912570689930292414e-04	1.576836450787646129e-12	1.855527257783462947e+00	1.444621910647778096e-04	1.384267385816982726e-12
1.629999999999999217e-06	1.830215178576727997e+00	-2.108036628087587455e-04	1.586784010947518834e-12	1.854160387567451052e+00	1.588183384130367661e-04	1.390494021738533843e-12
1.639999999999999121e-06	1.828545473695609935e+00	-2.319747007240995117e-04	1.596818549610129973e-12	1.852791893320488104e+00	1.742901744724447517e-04	1.396766517550621155e-12
1.649999999999999025e-06	1.826873362622267960e+00	-2.548911619506892784e-04	1.606940564611120967e-12	1.851421785123815056e+00	1.909447755331923190e-04	1.403085285296833860e-12
1.659999999999998930e-06	1.825198889505535993e+00	-2.796847168172059486e-04	1.617150552394848973e-12	1.850050073647387938e+00	2.088542282346407032e-04	1.409450740551639763e-12
