# wavelength [m]	effective refractive index	transmission [dB/m]	effective mode area [m]	effective refractive index	transmission [dB/m]	effective mode area [m]	
5.500000000000095572e-07	1.987836634252295953e+00	-3.375146132936506257e-15	4.228026659470122639e-13	1.989270873482120061e+00	-3.375146132936506257e-15	4.213059977325622946e-13
5.600000000000094614e-07	1.984736940983621967e+00	-4.339473599489793589e-15	4.254039492661800714e-13	1.986240951942721988e+00	-5.303801066043082106e-15	4.237146501141351497e-13
5.700000000000093657e-07	1.981709543865761036e+00	-5.303801066043082106e-15	4.280362941819924929e-13	1.983285079465912037e+00	-4.339473599489793589e-15	4.261468992928454798e-13
5.800000000000092699e-07	1.978747963683689992e+00	-6.750292265873014880e-15	4.307003243113803778e-13	1.980396774296665940e+00	-5.303801066043082106e-15	4.286032765289726134e-13
5.900000000000091742e-07	1.975846330310421006e+00	-9.643274665532882006e-15	4.333966599952658971e-13	1.977570162934068065e+00	-7.714619732426303396e-15	4.310843080648418660e-13
6.000000000000090785e-07	1.972999316406611969e+00	-5.303801066043082106e-15	4.361259191427826520e-13	1.974799913839931031e+00	-4.291257226162149201e-14	4.335905160791183880e-13
6.100000000000089827e-07	1.970202079466409906e+00	-2.555467786366218512e-14	4.388887179981717127e-13	1.972081179493538006e+00	-1.591140319812926525e-14	4.361224195530593881e-13
6.200000000000088870e-07	1.967450211020058015e+00	-4.821637332766438636e-15	4.416856718391475312e-13	1.969409545603032052e+00	-3.037631519642864979e-14	4.386805350590801945e-13
6.300000000000087912e-07	1.964739691992817949e+00	-2.796549653004541746e-14	4.445173956142167730e-13	1.966780986472985937e+00	-1.446491199829933090e-14	4.412653774806557919e-13
6.400000000000086955e-07	1.962066853375411091e+00	-9.016461812273328248e-14	4.473845045256309257e-13	1.964191825683369919e+00	8.678947198979574557e-15	4.438774606714059038e-13
6.500000000000085997e-07	1.959428341490452974e+00	-5.352017439370776350e-14	4.502876145637297779e-13	1.961638701364357029e+00	-3.085847892970529563e-14	4.465172980601991182e-13
6.600000000000085040e-07	1.956821087246747970e+00	-1.108976586536281478e-14	4.532273429977572454e-13	1.959118535458868049e+00	-8.823596318962667389e-14	4.491854032082893222e-13
6.700000000000084082e-07	1.954242278862954096e+00	-5.737748425992096174e-14	4.562043088276029086e-13	1.956628506454340943e+00	-7.377105119132708424e-14	4.518822903237295003e-13
6.800000000000083125e-07	1.951689337617342090e+00	-6.653859519217731467e-14	4.592191332004224540e-13	1.954166025140462892e+00	-5.737748425992096174e-14	4.546084747376711058e-13
6.900000000000082168e-07	1.949159896243457979e+00	-6.027046665958086200e-14	4.622724397955487843e-13	1.951728713012673033e+00	-9.980789278826636327e-14	4.573644733466364407e-13
7.000000000000081210e-07	1.946651779644793079e+00	-5.930613919302755771e-14	4.653648551808040556e-13	1.949314382994552952e+00	-1.219874245189925513e-13	4.601508050243167204e-13
7.100000000000080253e-07	1.944162987646536944e+00	-5.882397545975090556e-14	4.684970091429062298e-13	1.946921022197179107e+00	-1.350058453174622981e-13	4.629679910061014009e-13
7.200000000000079295e-07	1.941691679540817006e+00	-3.712660746230171673e-14	4.716695349943552019e-13	1.944546776471842042e+00	-1.952763119770450408e-13	4.658165552491018254e-13
7.300000000000078338e-07	1.939236160214182991e+00	3.471578879591819725e-14	4.748830698589617748e-13	1.942189936544922002e+00	-2.936377135654858653e-13	4.686970247701943537e-13
7.400000000000077380e-07	1.936794867673933052e+00	1.282555530515853058e-13	4.781382549379097176e-13	1.939848925551491909e+00	-3.929634426204822912e-13	4.716099299642784060e-13
7.500000000000076423e-07	1.934366361813588897e+00	3.201567188956795064e-13	4.814357357580366721e-13	1.937522287807988963e+00	-5.920970644637586740e-13	4.745558049046951934e-13
7.600000000000075466e-07	1.931949314278067931e+00	1.665393534737207523e-12	4.847761624038687148e-13	1.935208678684495087e+00	-6.055976489955064992e-13	4.775351876276105340e-13
7.700000000000074508e-07	1.929542499306752923e+00	2.818729184734343414e-12	4.881601897347386070e-13	1.932906855454858963e+00	-1.172140035595678681e-12	4.805486204018707142e-13
7.800000000000073551e-07	1.927144785447546083e+00	3.692409869430966887e-12	4.915884775882290088e-13	1.930615669017716085e+00	-2.982182690317064205e-12	4.835966499857851193e-13
7.900000000000072593e-07	1.924755128048168951e+00	5.805251348646908717e-12	4.950616909710076503e-13	1.928334056394721996e+00	-4.448442603212591646e-12	4.866798278720395495e-13
8.000000000000071636e-07	1.922372562442139055e+00	9.101322629320386693e-12	4.985805002380369408e-13	1.926061033923397003e+00	-6.713647822149173849e-12	4.897987105219076845e-13
8.100000000000070678e-07	1.919996197756659084e+00	1.404928686019211521e-11	5.021455812610822308e-13	1.923795691071870095e+00	-1.033325096786404046e-11	4.929538595897509516e-13
8.200000000000069721e-07	1.917625211278171982e+00	2.129427911637748133e-11	5.057576155872376648e-13	1.921537184811241028e+00	-1.545672279767686890e-11	4.961458421387121305e-13
8.300000000000068763e-07	1.915258843318704995e+00	3.216514264676577825e-11	5.094172905882883222e-13	1.919284734488724053e+00	-2.282611329710956825e-11	4.993752308484474460e-13
8.400000000000067806e-07	1.912896392532626999e+00	8.528029950380263667e-11	5.131252996014651166e-13	1.917037617151200024e+00	-5.836833073219632226e-11	5.026426042156011406e-13
8.500000000000066849e-07	1.910537211639087962e+00	1.305226869234926036e-10	5.168823420622920010e-13	1.914795163274449097e+00	-8.266407908866759449e-11	5.059485467477210660e-13
8.600000000000065891e-07	1.908180703510313991e+00	1.922309658334110140e-10	5.206891236299688581e-13	1.912556752858237896e+00	-1.307975202553912837e-10	5.092936491512152822e-13
8.700000000000064934e-07	1.905826317590376906e+00	2.847003265961283401e-10	5.245463563058825918e-13	1.910321811851926954e+00	-1.925964459517595919e-10	5.126785085138844243e-13
8.800000000000063976e-07	1.903473546612792999e+00	4.181005666709834897e-10	5.284547585456108353e-13	1.908089808878911109e+00	-2.814023266789645719e-10	5.161037284825429870e-13
8.900000000000063019e-07	1.901121923588718898e+00	6.077114547596304460e-10	5.324150553649151703e-13	1.905860252231712071e+00	-4.080826508239928840e-10	5.195699194361671491e-13
9.000000000000062061e-07	1.898771019040484065e+00	8.763673009306740508e-10	5.364279784400813059e-13	1.903632687112444932e+00	-5.866842944335820669e-10	5.230776986550077710e-13
9.100000000000061104e-07	1.896420438457816937e+00	1.251028772471659585e-09	5.404942662029471063e-13	1.901406693096046929e+00	-8.367025837454244217e-10	5.266276904860145007e-13
9.200000000000060147e-07	1.894069819956430090e+00	1.770790669160924044e-09	5.446146639310139822e-13	1.899181881795916071e+00	-1.184118429382739088e-09	5.302205265049386373e-13
9.300000000000059189e-07	1.891718832120768079e+00	2.483160583559215108e-09	5.487899238328801486e-13	1.896957894713797055e+00	-1.660030427849552461e-09	5.338568456754120194e-13
9.400000000000058232e-07	1.889367172014416951e+00	3.453059933551386599e-09	5.530208051293670296e-13	1.894734401257416101e+00	-2.311153494674957087e-09	5.375372945053094039e-13
9.500000000000057274e-07	1.887014563343470952e+00	4.760412179305962685e-09	5.573080741305859957e-13	1.892511096911158930e+00	-3.188785993885890857e-09	5.412625272006302126e-13
9.600000000000056317e-07	1.884660754759454049e+00	6.506303911376845858e-09	5.616525043092009999e-13	1.890287701546399912e+00	-4.363312258818610762e-09	5.450332058171923696e-13
9.700000000000055359e-07	1.882305518289768997e+00	8.821075558006641936e-09	5.660548763701699398e-13	1.888063957859485997e+00	-5.924506837498045239e-09	5.488500004103010001e-13
9.800000000000054402e-07	1.879948647884783108e+00	1.186457789601769956e-08	5.705159783172398007e-13	1.885839629926459038e+00	-7.981710482499647791e-09	5.527135891826627024e-13
9.900000000000053444e-07	1.877589958071695042e+00	1.583559642278550132e-08	5.750366055163542097e-13	1.883614501864693924e+00	-1.067127331266700665e-08	5.566246586306843347e-13
1.000000000000005249e-06	1.875229282706226019e+00	2.098158431278719025e-08	5.796175607563093419e-13	1.881388376592501910e+00	-1.416421398428526147e-08	5.605839036893887568e-13
1.010000000000005153e-06	1.872866473814059018e+00	2.760558725225953727e-08	5.842596543068073180e-13	1.879161074678612930e+00	-1.866822259963461145e-08	5.645920278760559758e-13
1.020000000000005057e-06	1.870501400514632984e+00	3.608121269306352536e-08	5.889637039742214253e-13	1.876932433274173917e+00	-2.444129244072428616e-08	5.686497434328081014e-13
1.030000000000004961e-06	1.868133948020602952e+00	4.686419117255550058e-08	5.937305351552250276e-13	1.874702305120578893e+00	-3.179893892571308911e-08	5.727577714682429217e-13
1.040000000000004866e-06	1.865764016706892070e+00	6.051304184788090379e-08	5.985609808885776961e-13	1.872470557627043064e+00	-4.112495861199533917e-08	5.769168420982819007e-13
1.050000000000004770e-06	1.863391521243779936e+00	7.771232146178084397e-08	6.034558819052299184e-13	1.870237072012403967e+00	-5.288847706170448411e-08	5.811276945863069130e-13
1.060000000000004674e-06	1.861016389788924030e+00	9.929536799823412318e-08	6.084160866770797006e-13	1.868001742506030904e+00	-6.766348322684915471e-08	5.853910774828160384e-13
1.070000000000004578e-06	1.858638563233738106e+00	1.262781697800517442e-07	6.134424514645320189e-13	1.865764475603290062e+00	-8.614735611405844382e-08	5.897077487646109373e-13
1.080000000000004483e-06	1.856257994499898034e+00	1.598960658260520888e-07	6.185358403631441529e-13	1.863525189371324053e+00	-1.091888293250811082e-07	5.940784759736921081e-13
1.090000000000004387e-06	1.853874647882070015e+00	2.016486622694701114e-07	6.236971253496015593e-13	1.861283812801270976e+00	-1.378147116188504016e-07	5.985040363559440164e-13
1.100000000000004291e-06	1.851488498433393026e+00	2.533428123944503267e-07	6.289271863272772266e-13	1.859040285203451104e+00	-1.732699118236676597e-07	6.029852169997432832e-13
1.110000000000004196e-06	1.849099531390385964e+00	3.171522978412555725e-07	6.342269111716442146e-13	1.856794555642182987e+00	-2.170497636029528218e-07	6.075228149745536440e-13
1.120000000000004100e-06	1.846707741634415090e+00	3.956656813458233278e-07	6.395971957757900756e-13	1.854546582407404109e+00	-2.709443353775109031e-07	6.121176374696444004e-13
1.130000000000004004e-06	1.844313133186876064e+00	4.919465308002518670e-07	6.450389440963304272e-13	1.852296332520229960e+00	-3.370843101904338802e-07	6.167705019330107188e-13
1.140000000000003908e-06	1.841915718735682939e+00	6.095829749108825272e-07	6.505530682000213676e-13	1.850043781270058973e+00	-4.179843424331533948e-07	6.214822362106155317e-13
1.150000000000003813e-06	1.839515519190698001e+00	7.527254197457051453e-07	6.561404883113385164e-13	1.847788911780863019e+00	-5.165762848251138562e-07	6.262536786860022168e-13
1.160000000000003717e-06	1.837112563266001919e+00	9.261267666643427803e-07	6.618021328613359038e-13	1.845531714604577989e+00	-6.362582569274102671e-07	6.310856784204519300e-13
1.170000000000003621e-06	1.834706887087061977e+00	1.135118880397631388e-06	6.675389385381522539e-13	1.843272187339632051e+00	-7.809037992293830084e-07	6.359790952936805455e-13
1.180000000000003525e-06	1.832298533820970077e+00	1.383386143228969086e-06	6.733518503393798372e-13	1.841010334272823901e+00	-9.499880740651864381e-07	6.409348001452949213e-13
1.190000000000003430e-06	1.829887553328122918e+00	1.693732336420079813e-06	6.792418216268336824e-13	1.838746166042892982e+00	-1.158053043637284717e-06	6.459536749169618406e-13
1.200000000000003334e-06	1.827474001833774953e+00	2.074382875411876359e-06	6.852098141838966401e-13	1.836479699324238934e+00	-1.417264427880169080e-06	6.510366127954881444e-13
1.210000000000003238e-06	1.825057941618084989e+00	2.535877558988529222e-06	6.912567982757541255e-13	1.834210956529424008e+00	-1.731422814500353392e-06	6.561845183569698781e-13
1.220000000000003142e-06	1.822639440723317072e+00	3.093956505226517812e-06	6.973837527131825469e-13	1.831939965529086001e+00	-2.111343947809926845e-06	6.613983077119197767e-13
1.230000000000003047e-06	1.820218572677013924e+00	3.766896941424648648e-06	7.035916649200544941e-13	1.829666759388123065e+00	-2.569659428054697085e-06	6.666789086516272415e-13
1.240000000000002951e-06	1.817795416229998962e+00	4.575769777274233100e-06	7.098815310049727607e-13	1.827391376116981991e+00	-3.121034125972162872e-06	6.720272607958277498e-13
1.250000000000002855e-06	1.815370055108159963e+00	5.544679225826483886e-06	7.162543558375610953e-13	1.825113858437034997e+00	-3.782363741501114075e-06	6.774443157417768155e-13
1.260000000000002759e-06	1.812942577777109987e+00	6.700993469751804219e-06	7.227111531297369181e-13	1.822834253559102002e+00	-4.572986053058745339e-06	6.829310372148408861e-13
1.270000000000002664e-06	1.810513077218758093e+00	8.075548054755789766e-06	7.292529455224768313e-13	1.820552612974196016e+00	-5.514874417814879760e-06	6.884884012206924150e-13
1.280000000000002568e-06	1.808081650719002065e+00	9.702817462485465615e-06	7.358807646785041663e-13	1.818268992255680061e+00	-6.632809293907294242e-06	6.941173961993282266e-13
1.290000000000002472e-06	1.805648399665795045e+00	1.162108150237239256e-05	7.425956513813919253e-13	1.815983450872086902e+00	-7.954558205899828452e-06	6.998190231808889572e-13
1.300000000000002376e-06	1.803213429356822939e+00	1.387254128088281711e-05	7.493986556414946085e-13	1.813696052009865056e+00	-9.511002373482304906e-06	7.055942959435089859e-13
1.310000000000002281e-06	1.800776848816163067e+00	1.650344898539619920e-05	7.562908368093138622e-13	1.811406862405382068e+00	-1.133628827829541484e-05	7.114442411733033839e-13
1.320000000000002185e-06	1.798338770619291926e+00	1.956421056198960840e-05	7.632732636967107307e-13	1.809115952185595066e+00	-1.346791462264960666e-05	7.173698986265958848e-13
1.330000000000002089e-06	1.795899310725896925e+00	2.310950915833944079e-05	7.703470147065064410e-13	1.806823394716809084e+00	-1.594687573152978936e-05	7.233723212945568062e-13
1.340000000000001993e-06	1.793458588319905900e+00	2.719849877816581956e-05	7.775131779710598936e-13	1.804529266460960013e+00	-1.881774289065140963e-05	7.294525755703948101e-13
1.350000000000001898e-06	1.791016725656287001e+00	3.189504768933559283e-05	7.847728515002589781e-13	1.802233646838951930e+00	-2.212884704271414276e-05	7.356117414192178164e-13
1.360000000000001802e-06	1.788573847914147974e+00	3.726809142528427057e-05	7.921271433395512487e-13	1.799936618100590913e+00	-2.593241843550295731e-05	7.418509125507353290e-13
1.370000000000001706e-06	1.786130083055655904e+00	4.339217707154309776e-05	7.995771717385655800e-13	1.797638265200633967e+00	-3.028485988653734066e-05	7.481711965949631291e-13
1.380000000000001610e-06	1.783685561690455890e+00	5.034815033284643833e-05	8.071240653308471448e-13	1.795338675680618001e+00	-3.524711392658682945e-05	7.545737152810960343e-13
1.390000000000001515e-06	1.781240416945143901e+00	5.822412613070849493e-05	8.147689633253302378e-13	1.793037939556020088e+00	-4.088512072328932188e-05	7.610596046196690838e-13
1.400000000000001419e-06	1.778794784337482060e+00	6.711666062559730266e-05	8.225130157101163197e-13	1.790736149208451033e+00	-4.727045429415679045e-05	7.676300150882385833e-13
1.410000000000001323e-06	1.776348801655025067e+00	7.713222232963903966e-05	8.303573834691028453e-13	1.788433399282524094e+00	-5.448114643154997299e-05	7.742861118207105397e-13
1.420000000000001227e-06	1.773902608837836903e+00	8.838890268894191381e-05	8.383032388121157751e-13	1.786129786587079105e+00	-6.260269512007455965e-05	7.810290748005371146e-13
1.430000000000001132e-06	1.771456347865056014e+00	1.010129874951475168e-04	8.463517654191657505e-13	1.783825410000523082e+00	-7.173094187810080127e-05	7.878600990578610677e-13
1.440000000000001036e-06	1.769010162644987894e+00	1.151540093895940444e-04	8.545041586991142980e-13	1.781520370379946927e+00	-8.196426838243852297e-05	7.947803948710719643e-13
1.450000000000000940e-06	1.766564198908536110e+00	1.309741762991915371e-04	8.627616260640355619e-13	1.779214770473825924e+00	-9.342053725818177381e-05	8.017911879724805156e-13
1.460000000000000844e-06	1.764118604105699095e+00	1.486547669434806643e-04	8.711253872190341583e-13	1.776908714838028036e+00	-1.062276587743179584e-04	8.088937197588342265e-13
1.470000000000000749e-06	1.761673527304951081e+00	1.683964358391242498e-04	8.795966744687020615e-13	1.774602309754927054e+00	-1.205279566691265600e-04	8.160892475065529819e-13
1.480000000000000653e-06	1.759229119095286009e+00	1.904192346027045531e-04	8.881767330405626817e-13	1.772295663155408096e+00	-1.364793513284757033e-04	8.233790445919460942e-13
1.490000000000000557e-06	1.756785531490755892e+00	2.149612246885030233e-04	8.968668214261310034e-13	1.769988884543564067e+00	-1.542561816076127863e-04	8.307644007166894995e-13
1.500000000000000462e-06	1.754342917837319993e+00	2.422752760064429548e-04	9.056682117401596797e-13	1.767682084923908103e+00	-1.740493921478066723e-04	8.382466221387099214e-13
1.510000000000000366e-06	1.751901432721850060e+00	2.726234448070327275e-04	9.145821900986187693e-13	1.765375376730931034e+00	-1.960657004364672505e-04	8.458270319086851178e-13
1.520000000000000270e-06	1.749461231883151058e+00	3.062684540928186879e-04	9.236100570160166764e-13	1.763068873760835098e+00	-2.205253976814383783e-04	8.535069701124719186e-13
1.530000000000000174e-06	1.747022472124837078e+00	3.434616727569831350e-04	9.327531278224883039e-13	1.760762691105292044e+00	-2.476585122067332919e-04	8.612877941194771006e-13
1.540000000000000079e-06	1.744585311229962077e+00	3.844271538913462917e-04	9.420127331012941308e-13	1.758456945087107037e+00	-2.776987615068845106e-04	8.691708788374768777e-13
1.549999999999999983e-06	1.742149907877265980e+00	4.293414549384134602e-04	9.513902191471516802e-13	1.756151753197614962e+00	-3.108746585721382217e-04	8.771576169738062476e-13
1.559999999999999887e-06	1.739716421558944015e+00	4.783089068640305813e-04	9.608869484458958666e-13	1.753847234035728064e+00	-3.474001402949303914e-04	8.852494193033299672e-13
1.569999999999999791e-06	1.737285012499822923e+00	5.313329875352768884e-04	9.705043001759380577e-13	1.751543507248499054e+00	-3.874558354864012367e-04	8.934477149434554685e-13
1.579999999999999696e-06	1.734855841577866986e+00	5.882838047928384828e-04	9.802436707319239085e-13	1.749240693473071984e+00	-4.311752660807148660e-04	9.017539516361292515e-13
1.589999999999999600e-06	1.732429070245903091e+00	6.488634612988814290e-04	9.901064742710491992e-13	1.746938914279954957e+00	-4.786215361585048926e-04	9.101695960373986663e-13
1.599999999999999504e-06	1.730004860451997084e+00	7.296923205139415518e-04	1.000094143174823517e-12	1.744638292118741996e+00	-5.211805092330190278e-04	9.186961340633168944e-13
1.609999999999999408e-06	1.727583374572954078e+00	8.167679465938044612e-04	1.010208129046845561e-12	1.742338950259094910e+00	-5.818628681180162141e-04	9.273350710144309037e-13
1.619999999999999313e-06	1.725164775325856992e+00	9.142993226011916731e-04	1.020449902755533199e-12	1.740041012743807958e+00	-6.495611578707864275e-04	9.360879321403079835e-13
1.629999999999999217e-06	1.722749225702564058e+00	1.023324003047165970e-03	1.030820955438622446e-12	1.737744604332362997e+00	-7.251954914206265070e-04	9.449562628029994367e-13
1.639999999999999121e-06	1.720336888894530958e+00	1.144975434278609500e-03	1.041322799078771870e-12	1.735449850450373033e+00	-8.096488664173609765e-04	9.539416288445521195e-13
1.649999999999999025e-06	1.717927928220567946e+00	1.280411564326032481e-03	1.051956967193550181e-12	1.733156877138851026e+00	-9.038582354168500817e-04	9.630456169247233041e-13
1.659999999999998930e-06	1.715522507055416979e+00	1.430797018315482956e-03	1.062725015548774889e-12	1.730865811004256960e+00	-1.008806302962485073e-03	9.722698348678559198e-13
