# wavelength [m]	effective refractive index	transmission [dB/m]	effective mode area [m]	effective refractive index	transmission [dB/m]	effective mode area [m]	
5.500000000000095572e-07	2.007395090492988921e+00	-1.700591487267054728e-12	8.848976882931689428e-13	2.009010456198943029e+00	-1.899725109110017283e-13	8.884713829694975982e-13
5.600000000000094614e-07	2.004935195623955835e+00	-2.362602293055559862e-14	8.884045465746069477e-13	2.006632849763955839e+00	-4.561268916797287080e-13	8.916094519260517468e-13
5.700000000000093657e-07	2.002554646462868959e+00	-2.941198772987535812e-14	8.919439624405254912e-13	2.004336937373664806e+00	-5.496666559354084383e-13	8.947604306953818240e-13
5.800000000000092699e-07	2.000246843817797160e+00	-2.121520426417236944e-14	8.955164901981127035e-13	2.002116132481004840e+00	-6.755113903206301608e-13	8.979247401455369405e-13
5.900000000000091742e-07	1.998005798178472903e+00	-2.073304053089572045e-14	8.991226743237887744e-13	1.999964457480682078e+00	-7.960523236398113980e-13	9.011027853057388989e-13
6.000000000000090785e-07	1.995826063396801020e+00	-1.012543839880952626e-14	9.027630504794348989e-13	1.997876477398913053e+00	-9.320224964238519664e-13	9.042949568694615561e-13
6.100000000000089827e-07	1.993702678711950949e+00	2.121520426417226531e-14	9.064381464280705017e-13	1.995847241927606985e+00	-1.082457581206199647e-12	9.075016325432683655e-13
6.200000000000088870e-07	1.991631117930912076e+00	-1.712934878841981920e-11	9.101484828606941727e-13	1.993872234613841110e+00	-3.826451387285129447e-12	9.107231782596808948e-13
6.300000000000087912e-07	1.989607244764308058e+00	-1.950882681215009125e-11	9.138945741439226647e-13	1.991947328204449086e+00	-4.251719800035524204e-12	9.139599492703940311e-13
6.400000000000086955e-07	1.987627273472909017e+00	-2.211347529932300246e-11	9.176769289982726342e-13	1.990068745301136088e+00	-4.583448448530191874e-12	9.172122911328498150e-13
6.500000000000085997e-07	1.985687734109520042e+00	-2.444087963986183264e-11	9.214960511131896216e-13	1.988233023610816996e+00	-4.844781191966417213e-12	9.204805406031945625e-13
6.600000000000085040e-07	1.983785441748252110e+00	-2.687869947532294765e-11	9.253524397066905648e-13	1.986436985183184012e+00	-5.047772123676115628e-12	9.237650264455651336e-13
6.700000000000084082e-07	1.981917469182856939e+00	-2.851468102234103157e-11	9.292465900348139581e-13	1.984677709117163902e+00	-4.986055165816633067e-12	9.270660701669546937e-13
6.800000000000083125e-07	1.980081122650944048e+00	-3.017139560989077503e-11	9.331789938563535889e-13	1.982952507293116007e+00	-4.817780022902894906e-12	9.303839866858995843e-13
6.900000000000082168e-07	1.978273920204010050e+00	-3.077506460395737116e-11	9.371501398570919278e-13	1.981258902750683060e+00	-4.174091438977908879e-12	9.337190849419159476e-13
7.000000000000081210e-07	1.976493572396462950e+00	-2.980591550006455494e-11	9.411605140377876200e-13	1.979594610385490006e+00	-3.136957248698976185e-12	9.370716684520317302e-13
7.100000000000080253e-07	1.974737965011801100e+00	-2.754649624591528163e-11	9.452106000692284250e-13	1.977957519682842058e+00	-1.420454358233224246e-12	9.404420358198313297e-13
7.200000000000079295e-07	1.973005143582408971e+00	-2.350596416103326430e-11	9.493008796175924915e-13	1.976345679244901898e+00	8.977888713610174217e-13	9.438304812018953915e-13
7.300000000000078338e-07	1.971293299491795992e+00	-1.666454294953932591e-11	9.534318326428529561e-13	1.974757282900162947e+00	4.242076525365838042e-12	9.472372947359784527e-13
7.400000000000077380e-07	1.969600757475910013e+00	-7.225223543156513673e-12	9.576039376726336945e-13	1.973190657211868926e+00	8.884348949346347182e-12	9.506627629346806751e-13
7.500000000000076423e-07	1.967925964363899105e+00	5.044396977537315605e-12	9.618176720538333831e-13	1.971644250225728090e+00	1.412739738498267883e-11	9.541071690480322479e-13
7.600000000000075466e-07	1.966267478918876099e+00	2.123159783105182268e-11	9.660735121838347984e-13	1.970116621317526961e+00	2.114191537666280651e-11	9.575707933979891927e-13
7.700000000000074508e-07	1.964623962656961043e+00	4.125971498375294992e-11	9.703719337231681871e-13	1.968606432018866981e+00	2.974371637826773454e-11	9.610539136875660663e-13
7.800000000000073551e-07	1.962994171537683963e+00	6.497927767827403462e-11	9.747134117911055534e-13	1.967112437714152007e+00	4.016520330922523077e-11	9.645568052869376606e-13
7.900000000000072593e-07	1.961376948432042022e+00	5.214427196129880708e-10	9.790984211421534556e-13	1.965633480115114073e+00	-1.019221807598792723e-10	9.680797414992255027e-13
8.000000000000071636e-07	1.959771216285679962e+00	1.023209301648977272e-10	9.835274363465377178e-13	1.964168480430334096e+00	-8.159897940183934614e-11	9.716229938045403691e-13
8.100000000000070678e-07	1.958175971904442925e+00	1.680051312225887295e-11	9.880009319172673374e-13	1.962716433157031926e+00	8.336996679259767602e-11	9.751868320938724511e-13
8.200000000000069721e-07	1.956590280298067031e+00	4.853971232448710252e-10	9.925193824722342192e-13	1.961276400430876032e+00	5.206519710905092628e-10	9.787715248770636646e-13
8.300000000000068763e-07	1.955013269525150976e+00	5.396395789046257196e-10	9.970832628537427929e-13	1.959847506876982948e+00	5.742676138966468880e-10	9.823773394845167334e-13
8.400000000000067806e-07	1.953444125989056923e+00	5.778346611949543523e-10	1.001693048247673297e-12	1.958428934911724983e+00	6.269170005807757269e-10	9.860045422549324723e-13
8.500000000000066849e-07	1.951882090140016013e+00	5.838077055219866239e-10	1.006349214293451966e-12	1.957019920450659090e+00	6.704313131750267717e-10	9.896533987074035425e-13
8.600000000000065891e-07	1.950326452543613920e+00	5.314842615209902031e-10	1.011052237183393892e-12	1.955619748982736050e+00	6.852240965096454393e-10	9.933241737055015588e-13
8.700000000000064934e-07	1.948776550280324038e+00	3.841572041789094564e-10	1.015802593754093147e-12	1.954227751975458949e+00	6.391080284111655324e-10	9.970171316108271355e-13
8.800000000000063976e-07	1.947231763644400981e+00	2.434049314984276987e-10	1.020600761570437560e-12	1.952843303579326895e+00	-2.615150013349930990e-10	1.000732536426154541e-12
8.900000000000063019e-07	1.945691513113958049e+00	2.309101405149790850e-10	1.025447218999389752e-12	1.951465817603365016e+00	-2.544566064431369763e-10	1.004470651936973087e-12
9.000000000000062061e-07	1.944155256566957979e+00	2.004316066086094668e-10	1.030342445283630647e-12	1.950094744736488028e+00	-2.300186197843805124e-10	1.008231741830990692e-12
9.100000000000061104e-07	1.942622486720481989e+00	1.444948275859407908e-10	1.035286920601399608e-12	1.948729569992073030e+00	-1.800346342081642894e-10	1.012016069825684486e-12
9.200000000000060147e-07	1.941092728772960019e+00	5.367446678802427354e-11	1.040281126124261368e-12	1.947369810355404018e+00	-9.636331507880596037e-11	1.015823899781528430e-12
9.300000000000059189e-07	1.939565538231168063e+00	-8.434249104423586118e-11	1.045325544068319943e-12	1.946015012615815110e+00	3.366852916711095883e-11	1.019655495810945884e-12
9.400000000000058232e-07	1.938040498905500009e+00	-2.852601187091627052e-10	1.050420657740140485e-12	1.944664751367048972e+00	2.250923529095685081e-10	1.023511122381716070e-12
9.500000000000057274e-07	1.936517221058823068e+00	-5.700269839378554833e-10	1.055566951577518823e-12	1.943318627161118917e+00	4.996643481109089573e-10	1.027391044415356059e-12
9.600000000000056317e-07	1.934995339695515959e+00	-9.645222608086358762e-10	1.060764911185533493e-12	1.941976264802288910e+00	8.791358850865889535e-10	1.031295527380836738e-12
9.700000000000055359e-07	1.933474512978677007e+00	-1.500922663938890647e-09	1.066015023368027674e-12	1.940637311769175977e+00	1.397828342660298431e-09	1.035224837384006974e-12
9.800000000000054402e-07	1.931954420764603997e+00	-2.220449335287366427e-09	1.071317776154803963e-12	1.939301436754057972e+00	2.090474867455890325e-09	1.039179241253005666e-12
9.900000000000053444e-07	1.930434763244728957e+00	-3.174032747964285037e-09	1.076673658824706271e-12	1.937968328309570110e+00	3.009224360090582543e-09	1.043159006620090423e-12
1.000000000000005249e-06	1.928915259686013961e+00	-4.422427461233054416e-09	1.082083161924776035e-12	1.936637693593832976e+00	4.207116759685185695e-09	1.047164401999975166e-12
1.010000000000005153e-06	1.927395647261781919e+00	-6.042718437984616286e-09	1.087546777285778420e-12	1.935309257205946931e+00	5.757719644007687892e-09	1.051195696865094880e-12
1.020000000000005057e-06	1.925875679965572074e+00	-8.126030767084184854e-09	1.093064998034085769e-12	1.933982760104465903e+00	7.744111752431449216e-09	1.055253161717917472e-12
1.030000000000004961e-06	1.924355127601345083e+00	-1.078438747828191833e-08	1.098638318600236982e-12	1.932657958602183923e+00	1.026738449676692854e-08	1.059337068160625263e-12
1.040000000000004866e-06	1.922833774843972110e+00	-1.415043422690702935e-08	1.104267234724230584e-12	1.931334623431157027e+00	1.344871430082439643e-08	1.063447688962243838e-12
1.050000000000004770e-06	1.921311420364453904e+00	-1.838402999022798339e-08	1.109952243457693247e-12	1.930012538872412975e+00	1.742975797444579041e-08	1.067585298123473139e-12
1.060000000000004674e-06	1.919787876014785066e+00	-2.367583050873813113e-08	1.115693843163089367e-12	1.928691501945271947e+00	2.238202308313282506e-08	1.071750170939394862e-12
1.070000000000004578e-06	1.918262966067886932e+00	-3.025306942993754433e-08	1.121492533510064781e-12	1.927371321651700997e+00	2.850491132713780338e-08	1.075942584060178144e-12
1.080000000000004483e-06	1.916736526508383109e+00	-3.838544022461275976e-08	1.127348815469082978e-12	1.926051818271476979e+00	3.603136564240376396e-08	1.080162815549928132e-12
1.090000000000004387e-06	1.915208404370327910e+00	-4.839273848331108816e-08	1.133263191302315402e-12	1.924732822704269930e+00	4.524160125828192934e-08	1.084411144943838592e-12
1.100000000000004291e-06	1.913678457118433096e+00	-6.220118810971778831e-08	1.139236164543735603e-12	1.923414175855197916e+00	6.219962356188581386e-08	1.088687853307960347e-12
1.110000000000004196e-06	1.912146552069444949e+00	-7.752066758659382727e-08	1.145268240017992531e-12	1.922095728060501996e+00	7.691069244667233017e-08	1.092993223276759242e-12
1.120000000000004100e-06	1.910612565850843936e+00	-9.611765275493843879e-08	1.151359923775490784e-12	1.920777338550528013e+00	9.467390586417916133e-08	1.097327539130100279e-12
1.130000000000004004e-06	1.909076383894011020e+00	-1.186139728827069411e-07	1.157511723105586527e-12	1.919458874947145954e+00	1.160473653903634923e-07	1.101691086828784681e-12
1.140000000000003908e-06	1.907537899959460992e+00	-1.457430627389722128e-07	1.163724146507933235e-12	1.918140212793219002e+00	1.416811318105875369e-07	1.106084154068699930e-12
1.150000000000003813e-06	1.905997015691798024e+00	-1.783600499519924884e-07	1.169997703669576103e-12	1.916821235111769939e+00	1.723347758705913344e-07	1.110507030329942902e-12
1.160000000000003717e-06	1.904453640202278919e+00	-2.174754452513176200e-07	1.176332905439960119e-12	1.915501831992753035e+00	2.088896310092503389e-07	1.114960006924928621e-12
1.170000000000003621e-06	1.902907689677060921e+00	-2.642556916722755959e-07	1.182730263804084466e-12	1.914181900205482956e+00	2.523696594595823522e-07	1.119443377045583176e-12
1.180000000000003525e-06	1.901359087009313997e+00	-3.200610216705316825e-07	1.189190291853710935e-12	1.912861342834927036e+00	3.039532575234751771e-07	1.123957435809597978e-12
1.190000000000003430e-06	1.899807761453569110e+00	-3.864658743840688331e-07	1.195713503756808735e-12	1.911540068940213111e+00	3.650032567326478231e-07	1.128502480305880269e-12
1.200000000000003334e-06	1.898253648300741947e+00	-4.652761802902723226e-07	1.202300414725251630e-12	1.910217993233813027e+00	4.370760993847614646e-07	1.133078809639264489e-12
1.210000000000003238e-06	1.896696688572468092e+00	-5.585492076159181190e-07	1.208951540980890818e-12	1.908895035780026062e+00	5.219523642750336471e-07	1.137686724974476247e-12
1.220000000000003142e-06	1.895136828733396950e+00	-6.686201937777903593e-07	1.215667399719956068e-12	1.907571121711417961e+00	6.216391205513474408e-07	1.142326529579487606e-12
1.230000000000003047e-06	1.893574020420287107e+00	-7.981149164724882491e-07	1.222448509076054336e-12	1.906246180962060111e+00	7.383999490653716948e-07	1.146998528868218467e-12
1.240000000000002951e-06	1.892008220186746970e+00	-9.499397328008778329e-07	1.229295388081579850e-12	1.904920148016413073e+00	8.747591997642676494e-07	1.151703030442694909e-12
1.250000000000002855e-06	1.890439389262609016e+00	-1.127303814436903678e-06	1.236208556627868680e-12	1.903592961672839090e+00	1.033512175808248523e-06	1.156440344134658841e-12
1.260000000000002759e-06	1.888867493326989999e+00	-1.333677695265293808e-06	1.243188535423917260e-12	1.902264564820808079e+00	1.217698628859043561e-06	1.161210782046720235e-12
1.270000000000002664e-06	1.887292502294120045e+00	-1.572790407600317063e-06	1.250235845953954035e-12	1.900934904230882072e+00	1.430629894068628865e-06	1.166014658593087695e-12
1.280000000000002568e-06	1.885714390111143057e+00	-1.843472967257588111e-06	1.257351010427866388e-12	1.899603930356652981e+00	1.689152702705980801e-06	1.170852290530978901e-12
1.290000000000002472e-06	1.884133134567105960e+00	-2.184681964969981715e-06	1.264534551760009987e-12	1.898271597147920042e+00	1.984128407747409178e-06	1.175723997035129876e-12
1.300000000000002376e-06	1.882548717112455972e+00	-2.585553328981476521e-06	1.271786993487924764e-12	1.896937861874328890e+00	2.327300066210975753e-06	1.180630099686372579e-12
1.310000000000002281e-06	1.880961122688334042e+00	-3.055641689691099631e-06	1.279108859749243325e-12	1.895602684958864970e+00	2.725934533998597460e-06	1.185570922544204255e-12
1.320000000000002185e-06	1.879370339565102022e+00	-3.605754105033188147e-06	1.286500675228075674e-12	1.894266029820562913e+00	3.188228883806911200e-06	1.190546792177528220e-12
1.330000000000002089e-06	1.877776359189500033e+00	-4.248049781817698375e-06	1.293962965106432948e-12	1.892927862725880095e+00	3.723378111833743539e-06	1.195558037703209039e-12
1.340000000000001993e-06	1.876179176039916019e+00	-4.996120119734492909e-06	1.301496255014980286e-12	1.891588152648173038e+00	4.341632280815467694e-06	1.200604990824537438e-12
1.350000000000001898e-06	1.874578787489250997e+00	-5.865081177785566924e-06	1.309101070983040259e-12	1.890246871134813045e+00	5.054381677183515374e-06	1.205687985869303425e-12
1.360000000000001802e-06	1.872975193674967009e+00	-6.871637495969068108e-06	1.316777939387966027e-12	1.888903992181482971e+00	5.874204112928736163e-06	1.210807359827740989e-12
1.370000000000001706e-06	1.871368397375799075e+00	-8.034136118773116427e-06	1.324527386904113019e-12	1.887559492113159099e+00	6.814909332758330957e-06	1.215963452390272245e-12
1.380000000000001610e-06	1.869758403894834942e+00	-9.372626331957738212e-06	1.332349940451122777e-12	1.886213349471490996e+00	7.891587008601628290e-06	1.221156605985043789e-12
1.390000000000001515e-06	1.868145220948483898e+00	-1.090890015558515291e-05	1.340246127142037565e-12	1.884865544908085111e+00	9.120628757968148067e-06	1.226387165815312597e-12
1.400000000000001419e-06	1.866528858561069093e+00	-1.266648867672446282e-05	1.348216474231008059e-12	1.883516061083426951e+00	1.051977086418568300e-05	1.231655479896670157e-12
1.410000000000001323e-06	1.864909328964645008e+00	-1.467068894561170434e-05	1.356261509060765760e-12	1.882164882571079056e+00	1.210804866882406045e-05	1.236961899094188861e-12
1.420000000000001227e-06	1.863286646503784061e+00	-1.694860221368877173e-05	1.364381759010031187e-12	1.880811995766831890e+00	1.390587206540722879e-05	1.242306777159379971e-12
1.430000000000001132e-06	1.861660827545015051e+00	-1.952909482050862485e-05	1.372577751440764963e-12	1.879457388802576068e+00	1.593494202912058657e-05	1.247690470767055464e-12
1.440000000000001036e-06	1.860031890390650089e+00	-2.244281776845112017e-05	1.380850013645561062e-12	1.878101051464565963e+00	1.821827072177306379e-05	1.253113339552124237e-12
1.450000000000000940e-06	1.858399855196767980e+00	-2.572226314955033957e-05	1.389199072795004320e-12	1.876742975115865963e+00	2.078014545837784683e-05	1.258575746146281086e-12
1.460000000000000844e-06	1.856764743895064962e+00	-2.940177518624015486e-05	1.397625455885385587e-12	1.875383152622712934e+00	2.364613289331116291e-05	1.264078056214601567e-12
1.470000000000000749e-06	1.855126580118430013e+00	-3.351765389516436533e-05	1.406129689686592383e-12	1.874021578284615908e+00	2.684302874662826402e-05	1.269620638492090216e-12
1.480000000000000653e-06	1.853485389129950978e+00	-3.810828514660840764e-05	1.414712300690399000e-12	1.872658247767930106e+00	3.039888506583430792e-05	1.275203864820163936e-12
1.490000000000000557e-06	1.851841197755226931e+00	-4.321429598650774735e-05	1.423373815059231386e-12	1.871293158042760085e+00	3.434297324523860910e-05	1.280828110183062689e-12
1.500000000000000462e-06	1.850194034317756975e+00	-4.887887157483394049e-05	1.432114758575519502e-12	1.869926307322987924e+00	3.870589885383318463e-05	1.286493752744227872e-12
1.510000000000000366e-06	1.848543928577268014e+00	-5.514807608467166560e-05	1.440935656591613712e-12	1.868557695009255948e+00	4.351958400194900123e-05	1.292201173882635259e-12
1.520000000000000270e-06	1.846890911670779900e+00	-6.207129106387655553e-05	1.449837033980513218e-12	1.867187321634738995e+00	4.881745363753644038e-05	1.297950758229088352e-12
1.530000000000000174e-06	1.845235016056290922e+00	-6.970176518550639025e-05	1.458819415087412779e-12	1.865815188813571002e+00	5.463454371919478200e-05	1.303742893702465297e-12
1.540000000000000079e-06	1.843576275458937097e+00	-7.809732947849081723e-05	1.467883323682159216e-12	1.864441299191760937e+00	6.100774035037317771e-05	1.309577971545971847e-12
1.549999999999999983e-06	1.841914724819450067e+00	-8.732044066654567720e-05	1.477029282912602342e-12	1.863065656400491044e+00	6.797496993702568566e-05	1.315456386363274171e-12
1.559999999999999887e-06	1.840250400244858087e+00	-9.744228602230820728e-05	1.486257815259862991e-12	1.861688265011645083e+00	7.558067707688264291e-05	1.321378536154989717e-12
1.569999999999999791e-06	1.838583338961242930e+00	-1.085375999391623489e-04	1.495569442492880490e-12	1.860309130495471086e+00	8.386639197677258663e-05	1.327344822354237401e-12
1.579999999999999696e-06	1.836913579268476981e+00	-1.206914103262922042e-04	1.504964685626761010e-12	1.858928259180242959e+00	9.288037238051159044e-05	1.333355649863347378e-12
1.589999999999999600e-06	1.835241160496773993e+00	-1.334591450841259171e-04	1.514444064904418029e-12	1.857545658213850093e+00	1.025925949004221737e-04	1.339411427078937180e-12
1.599999999999999504e-06	1.833566122965250011e+00	-1.476555116866528825e-04	1.524008099659135348e-12	1.856161335527124034e+00	1.131627174028977331e-04	1.345512565971121122e-12
1.609999999999999408e-06	1.831888507941682009e+00	-1.631123335329029899e-04	1.533657308427257926e-12	1.854775299799017896e+00	1.246036396089389865e-04	1.351659482055374651e-12
1.619999999999999313e-06	1.830208357604317992e+00	-1.799306479722791792e-04	1.543392208807318136e-12	1.853387560423271019e+00	1.369740302167138629e-04	1.357852594471033506e-12
1.629999999999999217e-06	1.828525715004938990e+00	-1.982192992261328792e-04	1.553213317452270042e-12	1.851998127476681910e+00	1.503370745536131549e-04	1.364092326006874923e-12
1.639999999999999121e-06	1.826840624033418958e+00	-2.180948664985468265e-04	1.563121150036475479e-12	1.850607011688842007e+00	1.647607486536938493e-04	1.370379103137141794e-12
1.649999999999999025e-06	1.825153129383594086e+00	-2.396810155816306016e-04	1.573116221224719722e-12	1.849214224413239016e+00	1.803182635941128495e-04	1.376713356057523408e-12
1.659999999999998930e-06	1.823463276520435050e+00	-2.631076008694803112e-04	1.583199044643262784e-12	1.847819777599704949e+00	1.970880546426465756e-04	1.383095518721157601e-12
