# wavelength [m]	effective refractive index	transmission [dB/m]	effective mode area [m]	effective refractive index	transmission [dB/m]	effective mode area [m]	
5.500000000000095572e-07	1.995338464287121916e+00	0.000000000000000000e+00	4.905705264917941824e-13	1.995479689678935076e+00	0.000000000000000000e+00	4.903881282797601445e-13
5.600000000000094614e-07	1.992488083785074915e+00	0.000000000000000000e+00	4.931409530783180156e-13	1.992636596496645041e+00	0.000000000000000000e+00	4.929383546257716743e-13
5.700000000000093657e-07	1.989712898320179058e+00	0.000000000000000000e+00	4.957363916481524452e-13	1.989868886037494899e+00	0.000000000000000000e+00	4.955125273445848000e-13
5.800000000000092699e-07	1.987006380562498897e+00	0.000000000000000000e+00	4.983573569186737408e-13	1.987170031147533100e+00	0.000000000000000000e+00	4.981111630558299798e-13
5.900000000000091742e-07	1.984362612163401929e+00	0.000000000000000000e+00	5.010043583820907205e-13	1.984534113582498094e+00	0.000000000000000000e+00	5.007347719635172678e-13
6.000000000000090785e-07	1.981776217449829902e+00	0.000000000000000000e+00	5.036779011762451058e-13	1.981955757702019039e+00	0.000000000000000000e+00	5.033838588277450294e-13
6.100000000000089827e-07	1.979242305464155027e+00	0.000000000000000000e+00	5.063784868731148765e-13	1.979430072509483995e+00	0.000000000000000000e+00	5.060589238441337910e-13
6.200000000000088870e-07	1.976756419160295097e+00	0.000000000000000000e+00	5.091066141948130046e-13	1.976952600848268959e+00	9.643274665532869384e-16	5.087604634418324796e-13
6.300000000000087912e-07	1.974314490755725071e+00	0.000000000000000000e+00	5.118627796654143596e-13	1.974519274753937959e+00	9.643274665532869384e-16	5.114889710094588732e-13
6.400000000000086955e-07	1.971912802394685027e+00	9.643274665532869384e-16	5.146474782060157287e-13	1.972126376117707913e+00	0.000000000000000000e+00	5.142449375571251019e-13
6.500000000000085997e-07	1.969547951407156106e+00	1.928654933106573877e-15	5.174612036793361035e-13	1.969770501945723007e+00	0.000000000000000000e+00	5.170288523216944468e-13
6.600000000000085040e-07	1.967216819555499097e+00	2.892982399659860421e-15	5.203044493894190930e-13	1.967448533606054095e+00	-4.821637332766435678e-16	5.198412033214855081e-13
6.700000000000084082e-07	1.964916545750369004e+00	5.785964799319719264e-15	5.231777085413081560e-13	1.965157609544996076e+00	-2.410818666383218135e-15	5.226824778658799853e-13
6.800000000000083125e-07	1.962644501792645046e+00	9.643274665532859918e-15	5.260814746649565708e-13	1.962895101029419997e+00	-6.750292265873014880e-15	5.255531630246649764e-13
6.900000000000082168e-07	1.960398270761237960e+00	1.639356693140584798e-14	5.290162420071102082e-13	1.960658590535028001e+00	-1.205409333191610645e-14	5.284537460612784168e-13
7.000000000000081210e-07	1.958175627719932921e+00	2.796549653004523759e-14	5.319825058944395175e-13	1.958445852453660097e+00	-2.073304053089572045e-14	5.313847148337330812e-13
7.100000000000080253e-07	1.955974522461352949e+00	4.821637332766408502e-14	5.349807630708706868e-13	1.956254835837744066e+00	-3.519795252919512077e-14	5.343465581664720333e-13
7.200000000000079295e-07	1.953793064044488936e+00	8.196783465702861826e-14	5.380115120116515407e-13	1.954083648938317097e+00	-6.027046665958086200e-14	5.373397661960949829e-13
7.300000000000078338e-07	1.951629506914581036e+00	1.388631551836711229e-13	5.410752532164449974e-13	1.951930545325420097e+00	-1.022187114546496366e-13	5.403648306935098947e-13
7.400000000000077380e-07	1.949482238421964997e+00	2.324029194393359596e-13	5.441724894834831983e-13	1.949793911407454949e+00	-1.711681253132118276e-13	5.434222453648427557e-13
7.500000000000076423e-07	1.947349767580214941e+00	3.857309866212977360e-13	5.473037261665322969e-13	1.947672255189855095e+00	-2.849587663665056975e-13	5.465125061330891413e-13
7.600000000000075466e-07	1.945230714924145898e+00	6.345274729920165183e-13	5.504694714163443791e-13	1.945564196133608093e+00	-4.691453124781994645e-13	5.496361114023837793e-13
7.700000000000074508e-07	1.943123803345907064e+00	1.034723371611553764e-12	5.536702364079502769e-13	1.943468455991880006e+00	-7.656760084433773777e-13	5.527935623064862322e-13
7.800000000000073551e-07	1.941027849802239968e+00	1.666357862203760448e-12	5.569065355551180575e-13	1.941383850517808929e+00	-1.236267812121490039e-12	5.559853629429249112e-13
7.900000000000072593e-07	1.938941757799210075e+00	2.652864860487282209e-12	5.601788867130964857e-13	1.939309281949765040e+00	-1.971085341635366253e-12	5.592120205941157218e-13
8.000000000000071636e-07	1.936864510571820075e+00	7.558398682838087044e-12	5.634878113706799603e-13	1.937243732191499923e+00	-5.616243165209975070e-12	5.624740459366082650e-13
8.100000000000070678e-07	1.934795164885793062e+00	1.163171790155017286e-11	5.668338348324879404e-13	1.935186256614461975e+00	-8.663517959523373057e-12	5.657719532395295153e-13
8.200000000000069721e-07	1.932732845397246990e+00	1.535402192243429732e-11	5.702174863923221906e-13	1.933135978418003997e+00	-1.150490883972923018e-11	5.691062605531229400e-13
8.300000000000068763e-07	1.930676739513426998e+00	2.294906504897449359e-11	5.736392994983370386e-13	1.931092083490647093e+00	-1.724217510200700062e-11	5.724774898882752685e-13
8.400000000000067806e-07	1.928626092704115003e+00	3.399832916066961421e-11	5.770998119106459582e-13	1.929053815722022946e+00	-2.561253751173083029e-11	5.758861673877627705e-13
8.500000000000066849e-07	1.926580204218993009e+00	4.992033996077710809e-11	5.805995658520446411e-13	1.927020472720768929e+00	-3.771291856212969692e-11	5.793328234899307305e-13
8.600000000000065891e-07	1.924538423171141988e+00	7.263796641751889340e-11	5.841391081523481573e-13	1.924991401898556997e+00	-5.503079337041181609e-11	5.828179930853970189e-13
8.700000000000064934e-07	1.922500144951327039e+00	1.056507529068264986e-10	5.877189903868445505e-13	1.922965996884901108e+00	-8.027640428143686665e-11	5.863422156673952989e-13
8.800000000000063976e-07	1.920464807941377972e+00	1.521496590151793357e-10	5.913397690093233943e-13	1.920943694241080024e+00	-1.159478415975153616e-10	5.899060354762067991e-13
8.900000000000063019e-07	1.918431890498512038e+00	2.174597010121881378e-10	5.950020054801006716e-13	1.918923970444976090e+00	-1.662081069921720924e-10	5.935100016382025895e-13
9.000000000000062061e-07	1.916400908185277085e+00	3.084584623879792866e-10	5.987062663893596636e-13	1.916906339121553060e+00	-2.364670775535687027e-10	5.971546682998708725e-13
9.100000000000061104e-07	1.914371411222530961e+00	4.342009780509773249e-10	6.024531235762160868e-13	1.914890348496365968e+00	-3.338887420322449810e-10	6.008405947572336909e-13
9.200000000000060147e-07	1.912342982145099901e+00	6.065291892858012820e-10	6.062431542437651635e-13	1.912875579051743991e+00	-4.678502207157930299e-10	6.045683455810415018e-13
9.300000000000059189e-07	1.910315233641940891e+00	8.407922963690897272e-10	6.100769410703998159e-13	1.910861641367485042e+00	-6.505743642479710870e-10	6.083384907379657378e-13
9.400000000000058232e-07	1.908287806564306965e+00	1.156668365568110285e-09	6.139550723176723123e-13	1.908848174129555986e+00	-8.978105688219092921e-10	6.121516057081851777e-13
9.500000000000057274e-07	1.906260368087222989e+00	1.579230875313861694e-09	6.178781419349238295e-13	1.906834842292103094e+00	-1.229688205991111770e-09	6.160082715995744323e-13
9.600000000000056317e-07	1.904232610010867077e+00	4.162820377551745503e-09	6.218467496609088218e-13	1.904821335379361047e+00	-3.209777474193287223e-09	6.199090752587447636e-13
9.700000000000055359e-07	1.902204247189857922e+00	5.649094905335378945e-09	6.258615011225853466e-13	1.902807365915490045e+00	-4.369257819819621763e-09	6.238546093791900733e-13
9.800000000000054402e-07	1.900175016079532098e+00	7.608473308535674785e-09	6.299230079313006604e-13	1.900792667971390904e+00	-5.902989316543809003e-09	6.278454726066826581e-13
9.900000000000053444e-07	1.898144673389398074e+00	1.017162099359872881e-08	6.340318877764909303e-13	1.898776995818701074e+00	-7.916158876349508921e-09	6.318822696422063049e-13
1.000000000000005249e-06	1.896112994834777910e+00	1.349957196692516104e-08	6.381887645171053918e-13	1.896760122681997895e+00	-1.053889670586385137e-08	6.359656113424938742e-13
1.010000000000005153e-06	1.894079773978613934e+00	1.778940100865617391e-08	6.423942682708382551e-13	1.894741839581145060e+00	-1.393118473340263686e-08	6.400961148184070649e-13
1.020000000000005057e-06	1.892044821156001921e+00	2.328095467781598768e-08	6.466490355013624335e-13	1.892721954256401995e+00	-1.828856976741963310e-08	6.442744035312753897e-13
1.030000000000004961e-06	1.890007962474816949e+00	3.026486680133747553e-08	6.509537091036560710e-13	1.890700290169603948e+00	-2.384884580426017321e-08	6.485011073873369368e-13
1.040000000000004866e-06	1.887969038886327056e+00	3.909168679653886092e-08	6.553089384875819135e-13	1.888676685575356062e+00	-3.090013075373178554e-08	6.527768628304544922e-13
1.050000000000004770e-06	1.885927905320263998e+00	5.018316037184513929e-08	6.597153796597267936e-13	1.886650992656679016e+00	-3.979031974257781041e-08	6.571023129330989441e-13
1.060000000000004674e-06	1.883884429879252975e+00	6.404525951657146219e-08	6.641736953037727486e-13	1.884623076720026047e+00	-5.093842657178753903e-08	6.614781074859154150e-13
1.070000000000004578e-06	1.881838493088030084e+00	8.128368598925505715e-08	6.686845548593477700e-13	1.882592815445099044e+00	-6.484771882395275082e-08	6.659049030857837661e-13
1.080000000000004483e-06	1.879789987193217105e+00	1.026234240149573525e-07	6.732486345995257203e-13	1.880560098185219964e+00	-8.212283323366979127e-08	6.703833632225985475e-13
1.090000000000004387e-06	1.877738815509768955e+00	1.289306064012107924e-07	6.778666177070840652e-13	1.878524825314398905e+00	-1.034885525962108849e-07	6.749141583648134285e-13
1.100000000000004291e-06	1.875684891810619925e+00	1.612393893665348338e-07	6.825391943495191184e-13	1.876486907617594957e+00	-1.298130113530845584e-07	6.794979660438573420e-13
1.110000000000004196e-06	1.873628139756208011e+00	2.007830665463569039e-07	6.872670617530211510e-13	1.874446265720874027e+00	-1.621348616748241488e-07	6.841354709374792919e-13
1.120000000000004100e-06	1.871568492361022962e+00	2.490301560269126031e-07	6.920509242753917962e-13	1.872402829558603043e+00	-2.016949858718347393e-07	6.888273649521684404e-13
1.130000000000004004e-06	1.869505891494334993e+00	3.077257738098856119e-07	6.968914934780468305e-13	1.870356537874827918e+00	-2.499725371979256585e-07	6.935743473046641131e-13
1.140000000000003908e-06	1.867440287412698074e+00	3.789370767215780617e-07	7.017894881971662263e-13	1.868307337756444086e+00	-3.087256345107208750e-07	6.983771246026697253e-13
1.150000000000003813e-06	1.865371638321879022e+00	4.651038143047679276e-07	7.067456346140333833e-13	1.866255184195799943e+00	-3.800363650825609396e-07	7.032364109248246471e-13
1.160000000000003717e-06	1.863299909966102064e+00	5.690901333389947370e-07	7.117606663247288307e-13	1.864200039680637966e+00	-4.663578419351719715e-07	7.081529279000416496e-13
1.170000000000003621e-06	1.861225075242685989e+00	6.942382752910484525e-07	7.168353244091477060e-13	1.862141873809427084e+00	-5.705639521630780730e-07	7.131274047862476926e-13
1.180000000000003525e-06	1.859147113840240007e+00	8.444190547816458118e-07	7.219703574995193292e-13	1.860080662930277073e+00	-6.959967634315042019e-07	7.181605785486337773e-13
1.190000000000003430e-06	1.857066011898794056e+00	1.024076998494792878e-06	7.271665218484254415e-13	1.858016389801806945e+00	-8.465110920338786363e-07	7.232531939374145687e-13
1.200000000000003334e-06	1.854981761690319919e+00	1.238263803092968169e-06	7.324245813964555408e-13	1.855949043274401022e+00	-1.026509951377557557e-06	7.284060035653118531e-13
1.210000000000003238e-06	1.852894361318234928e+00	1.492656771686244402e-06	7.377453078395592965e-13	1.853878617990482036e+00	-1.240968107509794075e-06	7.336197679846393505e-13
1.220000000000003142e-06	1.850803814434583972e+00	1.793555038809297869e-06	7.431294806961503646e-13	1.851805114102458960e+00	-1.495437684761060392e-06	7.388952557642468690e-13
1.230000000000003047e-06	1.848710129973692107e+00	2.145492142846665882e-06	7.485778873740684356e-13	1.849728537007184981e+00	-1.793295342041381254e-06	7.442332435663130994e-13
1.240000000000002951e-06	1.846613321901179106e+00	2.561538110734784908e-06	7.540913232375832872e-13	1.847648897095770071e+00	-2.146396499350407374e-06	7.496345162229263640e-13
1.250000000000002855e-06	1.844513408977271007e+00	3.073822521143481841e-06	7.596705916743744022e-13	1.845566209517716993e+00	-2.582586148978892892e-06	7.550998668128091521e-13
1.260000000000002759e-06	1.842410414533500962e+00	3.682824581431199738e-06	7.653165041624681756e-13	1.843480493958473909e+00	-3.102554869425572043e-06	7.606300967381652391e-13
1.270000000000002664e-06	1.840304366261853009e+00	4.405360367183744432e-06	7.710298803376839327e-13	1.841391774429435024e+00	-3.721166353326333280e-06	7.662260158014787411e-13
1.280000000000002568e-06	1.838195296015566971e+00	5.260684406366937064e-06	7.768115480612415040e-13	1.839300079069619009e+00	-4.455505613890176444e-06	7.718884422826839468e-13
1.290000000000002472e-06	1.836083239620819096e+00	6.270700531323137427e-06	7.826623434877809783e-13	1.837205439958250919e+00	-5.325089204261577609e-06	7.776182030166252490e-13
1.300000000000002376e-06	1.833968236698559906e+00	7.460170872000428981e-06	7.885831111339556850e-13	1.835107892937517082e+00	-6.352071330798709402e-06	7.834161334708643255e-13
1.310000000000002281e-06	1.831850330495861989e+00	8.856896399470716563e-06	7.945747039476047697e-13	1.833007477444843936e+00	-7.561437006801403199e-06	7.892830778240491406e-13
1.320000000000002185e-06	1.829729567726140926e+00	1.049188637979307537e-05	8.006379833777075104e-13	1.830904236354075953e+00	-8.981181211608174112e-06	7.952198890447705517e-13
1.330000000000002089e-06	1.827605998417709099e+00	1.239950098128142553e-05	8.067738194451276575e-13	1.828798215825002904e+00	-1.064246762803610060e-05	8.012274289711236136e-13
1.340000000000001993e-06	1.825479675770079080e+00	1.461756110270513900e-05	8.129830908143994219e-13	1.826689465160663106e+00	-1.257976508238610938e-05	8.073065683910185165e-13
1.350000000000001898e-06	1.823350656017560967e+00	1.718743573680149561e-05	8.192666848665641012e-13	1.824578036671943071e+00	-1.483096198397475008e-05	8.134581871233490970e-13
1.360000000000001802e-06	1.821218998299680925e+00	2.015410257384818893e-05	8.256254977732206168e-13	1.822463985549046983e+00	-1.743745559111426545e-05	8.196831741000447724e-13
1.370000000000001706e-06	1.819084764537943100e+00	2.356618668114397025e-05	8.320604345719646478e-13	1.820347369739302001e+00	-2.044422769639906131e-05	8.259824274492902421e-13
1.380000000000001610e-06	1.816948019318610053e+00	2.747598969685093175e-05	8.385724092432831073e-13	1.818228249831028931e+00	-2.389990795918630684e-05	8.323568545797921898e-13
1.390000000000001515e-06	1.814808829781042077e+00	3.193953140464321705e-05	8.451623447890959101e-13	1.816106688942970004e+00	-2.785683932609479694e-05	8.388073722663632956e-13
1.400000000000001419e-06	1.812667265511300085e+00	3.701659963247512210e-05	8.518311733130611551e-13	1.813982752619015981e+00	-3.237116169371629683e-05	8.453349067368960565e-13
1.410000000000001323e-06	1.810523398440645026e+00	4.277086500288022203e-05	8.585798361028158815e-13	1.811856508727853976e+00	-3.750293266191867785e-05	8.519403937607718545e-13
1.420000000000001227e-06	1.808377302748644944e+00	4.927004130175225490e-05	8.654092837142959843e-13	1.809728027367228043e+00	-4.331630960611758185e-05	8.586247787389475086e-13
1.430000000000001132e-06	1.806229054770595921e+00	5.658617971678640498e-05	8.723204760582935170e-13	1.807597380772556050e+00	-4.987981778357585065e-05	8.653890167957123443e-13
1.440000000000001036e-06	1.804078732908978910e+00	6.479606725076824867e-05	8.793143824894209152e-13	1.805464643229585997e+00	-5.726673789622539496e-05	8.722340728723576130e-13
1.450000000000000940e-06	1.801926417548701975e+00	7.398180152459038744e-05	8.863919818976343107e-13	1.803329890990875928e+00	-6.555563157494604689e-05	8.791609218227536176e-13
1.460000000000000844e-06	1.799772190975889030e+00	8.423154395077270349e-05	8.935542628025446423e-13	1.801193202195829901e+00	-7.483104525420366637e-05	8.861705485111295889e-13
1.470000000000000749e-06	1.797616137300001027e+00	9.564048383346814865e-05	9.008022234506432858e-13	1.799054656794097040e+00	-8.518439374712964425e-05	8.932639479120422803e-13
1.480000000000000653e-06	1.795458342379067096e+00	1.083071125165663545e-04	9.081368719156884785e-13	1.796914336472090090e+00	-9.671240715248782295e-05	9.004421252126439452e-13
1.490000000000000557e-06	1.793298893747824030e+00	1.223399234351678594e-04	9.155592262020373641e-13	1.794772324582460055e+00	-1.095155789382292090e-04	9.077060959179005800e-13
1.500000000000000462e-06	1.791137880548614003e+00	1.378636119007408832e-04	9.230703143522211740e-13	1.792628706076317080e+00	-1.237155951864437947e-04	9.150568859577289788e-13
1.510000000000000366e-06	1.788975393464826036e+00	1.550114768930754144e-04	9.306711745574737036e-13	1.790483567438035051e+00	-1.394406617068847407e-04	9.224955317975941737e-13
1.520000000000000270e-06	1.786811524656733097e+00	1.739302381838963630e-04	9.383628552725139302e-13	1.788336996622484021e+00	-1.568319523946137383e-04	9.300230805517992521e-13
1.530000000000000174e-06	1.784646367699584957e+00	1.947814217549481220e-04	9.461464153343546762e-13	1.786189082994513955e+00	-1.760450237184508679e-04	9.376405900999077958e-13
1.540000000000000079e-06	1.782480017523800031e+00	2.177424834844433345e-04	9.540229240853877299e-13	1.784039917270574982e+00	-1.972510481445654412e-04	9.453491292064489931e-13
1.549999999999999983e-06	1.780312570357116986e+00	2.430074407196887703e-04	9.619934615010554170e-13	1.781889591462322953e+00	-2.206376657299113919e-04	9.531497776439902389e-13
1.559999999999999887e-06	1.778144123668599974e+00	2.707868219274492979e-04	9.700591183221625423e-13	1.779738198822075956e+00	-2.464092515226290643e-04	9.610436263198258229e-13
1.569999999999999791e-06	1.775974776114352949e+00	3.013065896799506393e-04	9.782209961921994779e-13	1.777585833790030101e+00	-2.747863412239488442e-04	9.690317774063544082e-13
1.579999999999999696e-06	1.773804627484852903e+00	3.348058083454344023e-04	9.864802077998115037e-13	1.775432591943084004e+00	-3.060039229503807852e-04	9.771153444753316961e-13
1.589999999999999600e-06	1.771633778653773916e+00	3.715326270714433207e-04	9.948378770266526965e-13	1.773278569945198058e+00	-3.403082838919853272e-04	9.852954526361941694e-13
1.599999999999999504e-06	1.769462331528216081e+00	4.117383046227827081e-04	1.003295139100853581e-12	1.771123865499167005e+00	-3.779520534507294950e-04	9.935732386785272207e-13
1.609999999999999408e-06	1.767290389000272022e+00	4.556688919503420381e-04	1.011853140756320648e-12	1.768968577299740108e+00	-4.191871291658295180e-04	1.001949851218911521e-12
1.619999999999999313e-06	1.765118054899782019e+00	5.035542856922773682e-04	1.020513040398089271e-12	1.766812804987963004e+00	-4.642551514603273592e-04	1.010426450852261934e-12
1.629999999999999217e-06	1.762945433948243990e+00	5.555943778920331699e-04	1.029276008273946926e-12	1.764656649106683073e+00	-5.133752265385275711e-04	1.019004210307835272e-12
1.639999999999999121e-06	1.760772631713797942e+00	6.119421628006846935e-04	1.038143226652562977e-12	1.762500211057143940e+00	-5.667287235428209932e-04	1.027684314610054322e-12
1.649999999999999025e-06	1.758599754567176987e+00	6.726838062266262417e-04	1.047115890008335274e-12	1.760343593056570954e+00	-6.244410578234571704e-04	1.036467961244296169e-12
1.659999999999998930e-06	1.756426909638608036e+00	7.378157842020174060e-04	1.056195205213180945e-12	1.758186898096715023e+00	-6.865605155756196454e-04	1.045356360327763956e-12
