# wavelength [m]	effective refractive index	transmission [dB/m]	effective mode area [m]	effective refractive index	transmission [dB/m]	effective mode area [m]	
5.500000000000095572e-07	2.007902115387529829e+00	7.049233780503957410e-13	9.312699784163992272e-13	2.009571069296593127e+00	4.011602260861489386e-13	9.359330639806250058e-13
5.600000000000094614e-07	2.005459588118943870e+00	-5.129739958333239919e-12	9.349015874723137766e-13	2.007213359286514898e+00	1.159121614796896520e-12	9.391628427636766176e-13
5.700000000000093657e-07	2.003096632628034168e+00	2.205802646988387322e-11	9.385666529754647839e-13	2.004937651054511161e+00	1.044077348035988938e-11	9.424052374062027444e-13
5.800000000000092699e-07	2.000806647397951998e+00	2.671476380584354729e-11	9.422657638138509528e-13	2.002737356638989219e+00	1.242825238892098062e-11	9.456606581690198498e-13
5.900000000000091742e-07	1.998583640616067081e+00	3.231364907661387786e-11	9.459994969463677744e-13	2.000606497014143947e+00	1.476867515023848051e-11	9.489294996030031779e-13
6.000000000000090785e-07	1.996422163853700971e+00	3.875342789820404871e-11	9.497684185715060935e-13	1.998539635780385071e+00	1.743407626778188610e-11	9.522121420405293452e-13
6.100000000000089827e-07	1.994317254090457903e+00	4.637161488390035327e-11	9.535730851844820659e-13	1.996531821199087009e+00	2.045917153034635146e-11	9.555089529319132414e-13
6.200000000000088870e-07	1.992264382894032959e+00	5.536975447420367688e-11	9.574140445333056772e-13	1.994578535382540041e+00	2.389121298379197433e-11	9.588202880448494021e-13
6.300000000000087912e-07	1.990259411755288976e+00	-1.934151599670234824e-11	9.612918364842267384e-13	1.992675649638927071e+00	9.246936076769625221e-12	9.621464925434053026e-13
6.400000000000086955e-07	1.988298552734049984e+00	-2.307153463734867946e-11	9.652069938117002473e-13	1.990819385127764019e+00	1.052756295234947578e-11	9.654879019606892262e-13
6.500000000000085997e-07	1.986378333700272059e+00	-2.747561817712316883e-11	9.691600429073435846e-13	1.989006278110478920e+00	1.197694713457531002e-11	9.688448430774019034e-13
6.600000000000085040e-07	1.984495567562633012e+00	-3.276302567627150698e-11	9.731515044336137723e-13	1.987233149188178061e+00	1.352372839092224133e-11	9.722176347171224051e-13
6.700000000000084082e-07	1.982647324966174018e+00	-3.903694017371905626e-11	9.771818939153060324e-13	1.985497076008241102e+00	1.527301841524410522e-11	9.756065884675383487e-13
6.800000000000083125e-07	1.980830910015856983e+00	-4.652446078784580987e-11	9.812517222797818916e-13	1.983795368996623010e+00	1.718142247154592997e-11	9.790120093358025587e-13
6.900000000000082168e-07	1.979043838645935915e+00	-5.557756704395449208e-11	9.853614963504022066e-13	1.982125549735759051e+00	1.919493822170076143e-11	9.824341963451748481e-13
7.000000000000081210e-07	1.977283819308335966e+00	-6.642239373296508347e-11	9.895117192974716634e-13	1.980485331661286041e+00	2.139264051796543142e-11	9.858734430792119454e-13
7.100000000000080253e-07	1.975548735698203107e+00	-7.955556950017501268e-11	9.937028910509021397e-13	1.978872602795731961e+00	2.381985275126742053e-11	9.893300381790129027e-13
7.200000000000079295e-07	1.973836631273081954e+00	-9.548577708422307414e-11	9.979355086780468373e-13	1.977285410275662958e+00	2.636567726295339235e-11	9.928042657984339948e-13
7.300000000000078338e-07	1.972145695354537986e+00	-1.147448430829581958e-10	1.002210066729994114e-12	1.975721946461096001e+00	2.908025908128356746e-11	9.962964060214748477e-13
7.400000000000077380e-07	1.970474250628883039e+00	-1.381915011054175746e-10	1.006527057559114567e-12	1.974180536443834066e+00	3.191634616039686908e-11	9.998067352457881274e-13
7.500000000000076423e-07	1.968820741887336023e+00	-1.667558449931953539e-10	1.010886971610430154e-12	1.972659626795091992e+00	3.482861510936541269e-11	1.003335526535483987e-12
7.600000000000075466e-07	1.967183725866223032e+00	-2.013544680033937690e-10	1.015290297689095849e-12	1.971157775412986091e+00	3.779585072392506866e-11	1.006883049946441056e-12
7.700000000000074508e-07	1.965561862065438037e+00	-2.434025206934030847e-10	1.019737523206006043e-12	1.969673642348148013e+00	4.073897815181908598e-11	1.010449572826628538e-12
7.800000000000073551e-07	1.963953904438286102e+00	-2.945499673588238867e-10	1.024229134403426229e-12	1.968205981500571911e+00	4.398876171407196491e-11	1.014035360093884814e-12
7.900000000000072593e-07	1.962358693858996972e+00	5.623446691017422014e-10	1.028765616565580553e-12	1.966753633093984099e+00	-2.873970683751857045e-10	1.017640674490580819e-12
8.000000000000071636e-07	1.960775151285353957e+00	-5.314022937513655226e-10	1.033347454191096746e-12	1.965315516845205890e+00	1.298891237779860824e-10	1.021265776839341240e-12
8.100000000000070678e-07	1.959202271543712959e+00	-6.414335041911527366e-10	1.037975131206013623e-12	1.963890625755772001e+00	1.199980169538335878e-10	1.024910926224807152e-12
8.200000000000069721e-07	1.957639117672163032e+00	-7.666297283753950520e-10	1.042649131083915531e-12	1.962478020461567940e+00	1.047741792397507969e-10	1.028576380246293851e-12
8.300000000000068763e-07	1.956084815764983942e+00	-9.114519451666135837e-10	1.047369937014459494e-12	1.961076824083640036e+00	8.183668612080710318e-11	1.032262395184812480e-12
8.400000000000067806e-07	1.954538550268029917e+00	2.621008301839603469e-09	1.052138032045776903e-12	1.959686217529821084e+00	-1.081329318083659222e-10	1.035969226181337744e-12
8.500000000000066849e-07	1.952999559680322017e+00	3.048183189712166021e-09	1.056953899162316541e-12	1.958305435202468026e+00	-1.380820499379603010e-10	1.039697127433524830e-12
8.600000000000065891e-07	1.951467132622050960e+00	3.528701779967024542e-09	1.061818021464913884e-12	1.956933761072471079e+00	-1.729338089079105891e-10	1.043446352312374794e-12
8.700000000000064934e-07	1.949940604233602937e+00	4.064072280742752181e-09	1.066730882230744940e-12	1.955570525084219025e+00	-2.127262996532655409e-10	1.047217153536777342e-12
8.800000000000063976e-07	1.948419352873973942e+00	4.655395953984685165e-09	1.071692965018133416e-12	1.954215099859831994e+00	-2.571789028813772635e-10	1.051009783306277760e-12
8.900000000000063019e-07	1.946902797090372950e+00	5.304914861026966417e-09	1.076704753752313161e-12	1.952866897674508051e+00	-3.066570987022384150e-10	1.054824493432049334e-12
9.000000000000062061e-07	1.945390392833729054e+00	2.169670260607736560e-09	1.081766732794138475e-12	1.951525367677662048e+00	1.585740085710724555e-09	1.058661535460515047e-12
9.100000000000061104e-07	1.943881630897505985e+00	2.447451537493017495e-09	1.086879387045839029e-12	1.950189993337309913e+00	1.794448514888165434e-09	1.062521160789877052e-12
9.200000000000060147e-07	1.942376034559464948e+00	2.747036258365564671e-09	1.092043201962310600e-12	1.948860290087295999e+00	2.017378845525720884e-09	1.066403620780618391e-12
9.300000000000059189e-07	1.940873157408208094e+00	3.069617296296149462e-09	1.097258663641871285e-12	1.947535803159240020e+00	2.255416330235037624e-09	1.070309166859975741e-12
9.400000000000058232e-07	1.939372581338006940e+00	3.413174385238805496e-09	1.102526258868560598e-12	1.946216105582688982e+00	2.508779871348412899e-09	1.074238050621153429e-12
9.500000000000057274e-07	1.937873914697217925e+00	3.780103878940855735e-09	1.107846475156900930e-12	1.944900796338769000e+00	2.774386513954563499e-09	1.078190523917597791e-12
9.600000000000056317e-07	1.936376790576874063e+00	4.173428944001116426e-09	1.113219800791185798e-12	1.943589498653967018e+00	3.052810032893439171e-09	1.082166838952697595e-12
9.700000000000055359e-07	1.934880865227476043e+00	4.594815938272856154e-09	1.118646724859610135e-12	1.942281858422030050e+00	3.342165167966914586e-09	1.086167248365314034e-12
9.800000000000054402e-07	1.933385816593043982e+00	5.048386397335167208e-09	1.124127737283398520e-12	1.940977542743065998e+00	3.641740245503085081e-09	1.090192005311429067e-12
9.900000000000053444e-07	1.931891342952620105e+00	-3.029551189285508223e-08	1.129663328812556784e-12	1.939676238570047007e+00	3.093667623294922467e-09	1.094241363544570553e-12
1.000000000000005249e-06	1.930397161660291960e+00	-3.392599653653841663e-08	1.135253991160153560e-12	1.938377651453736972e+00	4.361867209727655884e-09	1.098315577481148018e-12
1.010000000000005153e-06	1.928903007975572015e+00	-3.807799382118346674e-08	1.140900216848529715e-12	1.937081504377982100e+00	6.021962727379324851e-09	1.102414902286064828e-12
1.020000000000005057e-06	1.927408633976875896e+00	-4.285418678442780329e-08	1.146602499333214687e-12	1.935787536677997966e+00	8.173645384778849762e-09	1.106539593932357395e-12
1.030000000000004961e-06	1.925913807551332013e+00	-4.838180349188226581e-08	1.152361332983225818e-12	1.934495503034959984e+00	1.093378106224705188e-08	1.110689909269670418e-12
1.040000000000004866e-06	1.924418311454878072e+00	-5.481629064300131762e-08	1.158177213085602903e-12	1.933205172540827910e+00	1.444746921905343467e-08	1.114866106087994222e-12
1.050000000000004770e-06	1.922921942437102905e+00	-6.233826099292517641e-08	1.164050635846224059e-12	1.931916327827877922e+00	1.888164554470893121e-08	1.119068443179143703e-12
1.060000000000004674e-06	1.921424510425729038e+00	-7.116645439661277088e-08	1.169982098387517852e-12	1.930628764257827035e+00	2.443573295535980742e-08	1.123297180396130351e-12
1.070000000000004578e-06	1.919925837766174981e+00	-8.156501414281991993e-08	1.175972098742856405e-12	1.929342289166005919e+00	3.134446996558486960e-08	1.127552578710633525e-12
1.080000000000004483e-06	1.918425758511971946e+00	-9.383305293203582090e-08	1.182021135847951787e-12	1.928056721156339970e+00	3.988014792719322805e-08	1.131834900268553633e-12
1.090000000000004387e-06	1.916924117762131008e+00	-1.083413624148468466e-07	1.188129709529315876e-12	1.926771889443253061e+00	5.037038068999920208e-08	1.136144408443981830e-12
1.100000000000004291e-06	1.915420771042023018e+00	-5.329393192511951356e-08	1.194298320520887981e-12	1.925487633237044971e+00	6.118551270427740846e-08	1.140481367888141805e-12
1.110000000000004196e-06	1.913915583724373981e+00	-7.156979159858277297e-08	1.200527470329115747e-12	1.924203801169394934e+00	7.767179463639647601e-08	1.144846044631662706e-12
1.120000000000004100e-06	1.912408430487682054e+00	-8.989877518585829293e-08	1.206817661376142220e-12	1.922920250756164018e+00	9.795873687105830139e-08	1.149238705964280102e-12
1.130000000000004004e-06	1.910899194809011936e+00	-1.121147025983533113e-07	1.213169396886926996e-12	1.921636847894653943e+00	1.226170823359692642e-07	1.153659620718589021e-12
1.140000000000003908e-06	1.909387768488910897e+00	-1.389299587802712865e-07	1.219583180874575070e-12	1.920353466392904052e+00	1.524473249445947837e-07	1.158109059167331584e-12
1.150000000000003813e-06	1.907874051206037036e+00	-1.711776167046435152e-07	1.226059518118591847e-12	1.919069987528698951e+00	1.883656228959945611e-07	1.162587293105667954e-12
1.160000000000003717e-06	1.906357950099413889e+00	-2.098288150507430006e-07	1.232598914135949587e-12	1.917786299636172975e+00	2.314463428557538031e-07	1.167094595896175286e-12
1.170000000000003621e-06	1.904839379376362940e+00	-2.560200250654858876e-07	1.239201875149978470e-12	1.916502297718090997e+00	2.829156278690727583e-07	1.171631242512913668e-12
1.180000000000003525e-06	1.903318259944321911e+00	-3.110692729892167962e-07	1.245868908057253118e-12	1.915217883081975048e+00	3.441954979512774465e-07	1.176197509584631571e-12
1.190000000000003430e-06	1.901794519064887057e+00	-3.765181008752121212e-07	1.252600520392513550e-12	1.913932962998470044e+00	4.169070246118123179e-07	1.180793675437065960e-12
1.200000000000003334e-06	1.900268090028554901e+00	-4.541586059012461333e-07	1.259397220291783757e-12	1.912647450380370984e+00	5.029107071865297494e-07	1.185420020134618579e-12
1.210000000000003238e-06	1.898738911848770972e+00	-5.460570905696895180e-07	1.266259516453637187e-12	1.911361263480964912e+00	6.043133281671819020e-07	1.190076825521180431e-12
1.220000000000003142e-06	1.897206928973949935e+00	-6.545967342924197646e-07	1.273187918098782030e-12	1.910074325610326973e+00	7.234978646112211130e-07	1.194764375260389986e-12
1.230000000000003047e-06	1.895672091016298078e+00	-7.825129452791258107e-07	1.280182934928038984e-12	1.908786564868415025e+00	8.631449153698154585e-07	1.199482954875246566e-12
1.240000000000002951e-06	1.894134352496295026e+00	-9.329219694049568842e-07	1.287245077078742419e-12	1.907497913893823949e+00	1.026231188862951734e-06	1.204232851787130619e-12
1.250000000000002855e-06	1.892593672601811106e+00	-1.109350128352279155e-06	1.294374855079660646e-12	1.906208309627156927e+00	1.216060815548759761e-06	1.209014355354328798e-12
1.260000000000002759e-06	1.891050014960917958e+00	-1.315754501817743800e-06	1.301572779804545770e-12	1.904917693088107100e+00	1.436235271270485625e-06	1.213827756910044898e-12
1.270000000000002664e-06	1.889503347427478053e+00	-1.556524022368912438e-06	1.308839362424325838e-12	1.903626009165308997e+00	1.690655589119913938e-06	1.218673349799928730e-12
1.280000000000002568e-06	1.887953641878705957e+00	-1.836492155821392556e-06	1.316175114358057235e-12	1.902333206418159950e+00	1.983523642589269538e-06	1.223551429419248356e-12
1.290000000000002472e-06	1.886400874023943075e+00	-2.160912474864854169e-06	1.323580547222714653e-12	1.901039236889864092e+00	2.319255996017434067e-06	1.228462293249584113e-12
1.300000000000002376e-06	1.884845023223918004e+00	-2.535404058007406465e-06	1.331056172781836022e-12	1.899744055930967956e+00	2.702522321921047041e-06	1.233406240895190028e-12
1.310000000000002281e-06	1.883286072319841020e+00	-2.965900175533451770e-06	1.338602502893239888e-12	1.898447622032727100e+00	3.138132255949424279e-06	1.238383574119067454e-12
1.320000000000002185e-06	1.881724007471710980e+00	-3.621230449342433367e-06	1.346220049390708092e-12	1.897149896669696023e+00	3.353653113877808017e-06	1.243394596780826764e-12
1.330000000000002089e-06	1.880158818005307042e+00	-4.249556645248443342e-06	1.353909324285148988e-12	1.895850844151045989e+00	3.882057902256980937e-06	1.248439615253083521e-12
1.340000000000001993e-06	1.878590496267225074e+00	-4.980505674816854055e-06	1.361670839333513149e-12	1.894550431479860908e+00	4.488583107818760176e-06	1.253518937900040061e-12
1.350000000000001898e-06	1.877019037487595021e+00	-5.829335978670372468e-06	1.369505106229367226e-12	1.893248628220197904e+00	5.184212062137696410e-06	1.258632875474004484e-12
1.360000000000001802e-06	1.875444439649937900e+00	-6.813168194339256893e-06	1.377412636486106177e-12	1.891945406371269955e+00	5.981274984080103599e-06	1.263781741061895341e-12
1.370000000000001706e-06	1.873866703367720987e+00	-7.951035590288756406e-06	1.385393941380154678e-12	1.890640740248342944e+00	6.893551828112771119e-06	1.268965850119679283e-12
1.380000000000001610e-06	1.872285831767269926e+00	-9.264030867594091122e-06	1.393449531893525531e-12	1.889334606370016933e+00	7.936321520875983546e-06	1.274185520506633630e-12
1.390000000000001515e-06	1.870701830376600094e+00	-1.077537448525539809e-05	1.401579918656182779e-12	1.888026983351416055e+00	9.126468898951961095e-06	1.279441072519442321e-12
1.400000000000001419e-06	1.869114707019851052e+00	-1.251046748644765174e-05	1.409785611887948229e-12	1.886717851803038970e+00	1.048252282320543969e-05	1.284732828926048325e-12
1.410000000000001323e-06	1.867524471716988099e+00	-1.449695731534456509e-05	1.418067121340279725e-12	1.885407194234860029e+00	1.202468819407505600e-05	1.290061114999476565e-12
1.420000000000001227e-06	1.865931136588447004e+00	-1.676475942287295593e-05	1.426424956237838595e-12	1.884094994965413106e+00	1.377490215409181499e-05	1.295426258551404805e-12
1.430000000000001132e-06	1.864334715764468076e+00	-1.934607188114671639e-05	1.434859625220109805e-12	1.882781240035581893e+00	1.575682010657209573e-05	1.300828589965647302e-12
1.440000000000001036e-06	1.862735225298814967e+00	-2.227534549121885801e-05	1.443371636282878726e-12	1.881465917126792897e+00	1.799584442443534352e-05	1.306268442231550605e-12
1.450000000000000940e-06	1.861132683086645034e+00	-2.558932773376148734e-05	1.451961496720046373e-12	1.880149015483395969e+00	2.051903746055216163e-05	1.311746150977230427e-12
1.460000000000000844e-06	1.859527108786289018e+00	-2.932700910703889307e-05	1.460629713065514105e-12	1.878830525838959042e+00	2.335522674375307555e-05	1.317262054502715210e-12
1.470000000000000749e-06	1.857918523744725992e+00	-3.352961902425011649e-05	1.469376791035424574e-12	1.877510440346302989e+00	2.653484253699719470e-05	1.322816493813046882e-12
1.480000000000000653e-06	1.856306950926531085e+00	-3.824066502423969659e-05	1.478203235470800904e-12	1.876188752511025015e+00	3.008992500870416451e-05	1.328409812651227724e-12
1.490000000000000557e-06	1.854692414846117021e+00	-4.350592980144175697e-05	1.487109550280648139e-12	1.874865457128344071e+00	3.405411818389083152e-05	1.334042357531159977e-12
1.500000000000000462e-06	1.853074941503068951e+00	-4.937361199543566188e-05	1.496096238385702940e-12	1.873540550223073975e+00	3.846255787161701031e-05	1.339714477770445079e-12
1.510000000000000366e-06	1.851454558320424049e+00	-5.589443225568013984e-05	1.505163801662782264e-12	1.872214028992561063e+00	4.335191288772096118e-05	1.345426525523178072e-12
1.520000000000000270e-06	1.849831294085710010e+00	-6.312188823495018530e-05	1.514312740889949730e-12	1.870885891752414043e+00	4.876031892908255273e-05	1.351178855812649910e-12
1.530000000000000174e-06	1.848205178894595901e+00	-7.111255714782941089e-05	1.523543555692543701e-12	1.869556137884885061e+00	5.472747594520836100e-05	1.356971826563986357e-12
1.540000000000000079e-06	1.846576244097029917e+00	-7.992658877586179865e-05	1.532856744490201977e-12	1.868224767789754992e+00	6.129463770410340374e-05	1.362805798636763260e-12
1.549999999999999983e-06	1.844944522245705043e+00	-8.962942479019349090e-05	1.542252804444660765e-12	1.866891782837591940e+00	6.850368078618375173e-05	1.368681135857290016e-12
1.559999999999999887e-06	1.843310047046744060e+00	-1.002866073829350121e-04	1.551732231410014180e-12	1.865557185325253053e+00	7.640236656631825204e-05	1.374598205052411296e-12
1.569999999999999791e-06	1.841672853312479097e+00	-1.119759738171141302e-04	1.561295519881235383e-12	1.864220978433515974e+00	8.503484231920216657e-05	1.380557376079464061e-12
1.579999999999999696e-06	1.840032976916208929e+00	-1.247782135709010938e-04	1.570943162947783175e-12	1.862883166186724004e+00	9.445094775025714520e-05	1.386559021861008654e-12
1.589999999999999600e-06	1.838390454748785929e+00	-1.388408641104876915e-04	1.580675652124637636e-12	1.861543753414311997e+00	1.043177085646085551e-04	1.392603518239265606e-12
1.599999999999999504e-06	1.836745324677161006e+00	-1.534186041422398706e-04	1.590493477869181582e-12	1.860202745714282901e+00	1.156818638190263923e-04	1.398691244859626120e-12
1.609999999999999408e-06	1.835097625504336971e+00	-1.696926578829448587e-04	1.600397128502287442e-12	1.858860149418110952e+00	1.276783229783073404e-04	1.404822583571582900e-12
1.619999999999999313e-06	1.833447396931074946e+00	-1.873437248209870287e-04	1.610387091115835570e-12	1.857515971557599066e+00	1.406422365185341548e-04	1.410997920018439016e-12
1.629999999999999217e-06	1.831794679519124003e+00	-2.064692010977589739e-04	1.620463851099962347e-12	1.856170219833080060e+00	1.546295042356372255e-04	1.417217642929296424e-12
1.639999999999999121e-06	1.830139514655835020e+00	-2.271753955564254296e-04	1.630627892183536293e-12	1.854822902583151079e+00	1.696995535073221595e-04	1.423482144291242626e-12
1.649999999999999025e-06	1.828481944520125024e+00	-2.495783422497526013e-04	1.640879696398093520e-12	1.853474028755788039e+00	1.859158456931551918e-04	1.429791819381481462e-12
1.659999999999998930e-06	1.826822012049752919e+00	-2.738044720349692681e-04	1.651219744044019652e-12	1.852123607880791001e+00	2.033464668656740238e-04	1.436147066799422306e-12
