; Pulse saved with RP Fiber Power
; Domain: time.
;
; t1 = -2.994140625e-12
; t2 = 3e-12
; dt = 5.859375e-15
; lambda_ref = 1.542e-6
;
; Data: t (s), Re(A) (sqrt(W)), Im(A) (sqrt(W)):
-2.994140625e-12, -28.81305538e-6, 52.99382839e-6
-2.98828125e-12, -25.12142364e-6, 51.0335023e-6
-2.982421875e-12, -19.91746183e-6, 50.66400221e-6
-2.9765625e-12, -14.3272158e-6, 52.18664026e-6
-2.970703125e-12, -9.451235144e-6, 55.2943841e-6
-2.96484375e-12, -6.068827794e-6, 59.17344936e-6
-2.958984375e-12, -4.432043004e-6, 62.73596345e-6
-2.953125e-12, -4.20148496e-6, 64.92237032e-6
-2.947265625e-12, -4.539426247e-6, 64.99482862e-6
-2.94140625e-12, -4.335269948e-6, 62.7456279e-6
-2.935546875e-12, -2.504577891e-6, 58.56682767e-6
-2.9296875e-12, 1.715752617e-6, 53.36312752e-6
-2.923828125e-12, 8.552379085e-6, 48.33020826e-6
-2.91796875e-12, 17.6160501e-6, 44.65522222e-6
-2.912109375e-12, 27.97856443e-6, 43.21602951e-6
-2.90625e-12, 38.38681206e-6, 44.35607439e-6
-2.900390625e-12, 47.55941029e-6, 47.79232256e-6
-2.89453125e-12, 54.49039323e-6, 52.67940923e-6
-2.888671875e-12, 58.68294475e-6, 57.81298457e-6
-2.8828125e-12, 60.2546166e-6, 61.91967193e-6
-2.876953125e-12, 59.88892552e-6, 63.95930282e-6
-2.87109375e-12, 58.64789086e-6, 63.36268876e-6
-2.865234375e-12, 57.69566467e-6, 60.14561477e-6
-2.859375e-12, 58.00574559e-6, 54.87238563e-6
-2.853515625e-12, 60.12759295e-6, 48.48161878e-6
-2.84765625e-12, 64.07190719e-6, 42.02275785e-6
-2.841796875e-12, 69.34179144e-6, 36.37453615e-6
-2.8359375e-12, 75.09801175e-6, 32.02031925e-6
-2.830078125e-12, 80.41108464e-6, 28.93899928e-6
-2.82421875e-12, 84.53040259e-6, 26.63839168e-6
-2.818359375e-12, 87.09695295e-6, 24.31949518e-6
-2.8125e-12, 88.24220876e-6, 21.12484181e-6
-2.806640625e-12, 88.54708687e-6, 16.40180926e-6
-2.80078125e-12, 88.87307913e-6, 9.908123863e-6
-2.794921875e-12, 90.11249744e-6, 1.902834383e-6
-2.7890625e-12, 92.92678791e-6, -6.902526188e-6
-2.783203125e-12, 97.54503604e-6, -15.5196009e-6
-2.77734375e-12, 103.6782443e-6, -22.9380741e-6
-2.771484375e-12, 110.5733083e-6, -28.39060747e-6
-2.765625e-12, 117.1925646e-6, -31.55610584e-6
-2.759765625e-12, 122.4707231e-6, -32.64647197e-6
-2.75390625e-12, 125.5801393e-6, -32.35374052e-6
-2.748046875e-12, 126.1333747e-6, -31.67239661e-6
-2.7421875e-12, 124.2693735e-6, -31.64544497e-6
-2.736328125e-12, 120.601607e-6, -33.10313164e-6
-2.73046875e-12, 116.0443524e-6, -36.46450988e-6
-2.724609375e-12, 111.5663588e-6, -41.653974e-6
-2.71875e-12, 107.9403278e-6, -48.1525967e-6
-2.712890625e-12, 105.5566716e-6, -55.16669614e-6
-2.70703125e-12, 104.3510863e-6, -61.86395897e-6
-2.701171875e-12, 103.862991e-6, -67.60950906e-6
-2.6953125e-12, 103.4049629e-6, -72.13542274e-6
-2.689453125e-12, 102.2922548e-6, -75.59696211e-6
-2.68359375e-12, 100.0650573e-6, -78.50162618e-6
-2.677734375e-12, 96.63899262e-6, -81.53367181e-6
-2.671875e-12, 92.34056413e-6, -85.32658782e-6
-2.666015625e-12, 87.81777878e-6, -90.2505961e-6
-2.66015625e-12, 83.85224368e-6, -96.27751905e-6
-2.654296875e-12, 81.12738906e-6, -102.9627766e-6
-2.6484375e-12, 80.02004866e-6, -109.5504071e-6
-2.642578125e-12, 80.47591201e-6, -115.1715426e-6
-2.63671875e-12, 82.00528804e-6, -119.079841e-6
-2.630859375e-12, 83.80107545e-6, -120.8567274e-6
-2.625e-12, 84.94577423e-6, -120.5280228e-6
-2.619140625e-12, 84.64896213e-6, -118.5591158e-6
-2.61328125e-12, 82.44826964e-6, -115.7307858e-6
-2.607421875e-12, 78.31787175e-6, -112.9319026e-6
-2.6015625e-12, 72.65555022e-6, -110.9286063e-6
-2.595703125e-12, 66.15451507e-6, -110.1755334e-6
-2.58984375e-12, 59.59918778e-6, -110.7215959e-6
-2.583984375e-12, 53.64547989e-6, -112.2346392e-6
-2.578125e-12, 48.64957434e-6, -114.1342731e-6
-2.572265625e-12, 44.59386622e-6, -115.7906195e-6
-2.56640625e-12, 41.12915293e-6, -116.7279742e-6
-2.560546875e-12, 37.71725043e-6, -116.771954e-6
-2.5546875e-12, 33.82840248e-6, -116.0966066e-6
-2.548828125e-12, 29.131991e-6, -115.1586861e-6
-2.54296875e-12, 23.62175055e-6, -114.5405802e-6
-2.537109375e-12, 17.63699989e-6, -114.7509675e-6
-2.53125e-12, 11.77318356e-6, -116.0449754e-6
-2.525390625e-12, 6.708722007e-6, -118.3196149e-6
-2.51953125e-12, 3.000644973e-6, -121.117396e-6
-2.513671875e-12, 911.0089023e-9, -123.7381793e-6
-2.5078125e-12, 316.7912402e-9, -125.4265055e-6
-2.501953125e-12, 730.6998932e-9, -125.5788445e-6
-2.49609375e-12, 1.42689238e-6, -123.9093127e-6
-2.490234375e-12, 1.634158251e-6, -120.525109e-6
-2.484375e-12, 739.1801726e-9, -115.8902639e-6
-2.478515625e-12, -1.559977593e-6, -110.689935e-6
-2.47265625e-12, -5.194322333e-6, -105.6371962e-6
-2.466796875e-12, -9.773505937e-6, -101.2809979e-6
-2.4609375e-12, -14.72633917e-6, -97.87263612e-6
-2.455078125e-12, -19.48666362e-6, -95.32914309e-6
-2.44921875e-12, -23.66599746e-6, -93.3014738e-6
-2.443359375e-12, -27.15968221e-6, -91.3227946e-6
-2.4375e-12, -30.1550464e-6, -88.98769236e-6
-2.431640625e-12, -33.04144034e-6, -86.1042458e-6
-2.42578125e-12, -36.25306149e-6, -82.7702625e-6
-2.419921875e-12, -40.09658963e-6, -79.34957012e-6
-2.4140625e-12, -44.62019563e-6, -76.35630961e-6
-2.408203125e-12, -49.56706394e-6, -74.28459252e-6
-2.40234375e-12, -54.42945781e-6, -73.43833917e-6
-2.396484375e-12, -58.58721023e-6, -73.81608956e-6
-2.390625e-12, -61.48759218e-6, -75.08815267e-6
-2.384765625e-12, -62.81032427e-6, -76.67425244e-6
-2.37890625e-12, -62.56616267e-6, -77.89815571e-6
-2.373046875e-12, -61.09844683e-6, -78.17165143e-6
-2.3671875e-12, -58.98755371e-6, -77.15128862e-6
-2.361328125e-12, -56.8886395e-6, -74.82027171e-6
-2.35546875e-12, -55.3536578e-6, -71.47194378e-6
-2.349609375e-12, -54.69284689e-6, -67.60261174e-6
-2.34375e-12, -54.91740331e-6, -63.7499683e-6
-2.337890625e-12, -55.77837926e-6, -60.3298768e-6
-2.33203125e-12, -56.88569103e-6, -57.52359894e-6
-2.326171875e-12, -57.86560963e-6, -55.25007008e-6
-2.3203125e-12, -58.50341179e-6, -53.2293844e-6
-2.314453125e-12, -58.82367964e-6, -51.1135534e-6
-2.30859375e-12, -59.08205802e-6, -48.63865404e-6
-2.302734375e-12, -59.67207347e-6, -45.74584062e-6
-2.296875e-12, -60.97905337e-6, -42.62949467e-6
-2.291015625e-12, -63.23085562e-6, -39.69539772e-6
-2.28515625e-12, -66.39620967e-6, -37.44200912e-6
-2.279296875e-12, -70.16569484e-6, -36.30366657e-6
-2.2734375e-12, -74.02305182e-6, -36.50730077e-6
-2.267578125e-12, -77.38472116e-6, -37.98991137e-6
-2.26171875e-12, -79.76307156e-6, -40.40409721e-6
-2.255859375e-12, -80.90110813e-6, -43.21001331e-6
-2.25e-12, -80.83604637e-6, -45.82385492e-6
-2.244140625e-12, -79.87276787e-6, -47.7747597e-6
-2.23828125e-12, -78.47789364e-6, -48.819929e-6
-2.232421875e-12, -77.13103083e-6, -48.98240436e-6
-2.2265625e-12, -76.18304598e-6, -48.50224646e-6
-2.220703125e-12, -75.76766327e-6, -47.72089399e-6
-2.21484375e-12, -75.79366247e-6, -46.94044294e-6
-2.208984375e-12, -76.01701934e-6, -46.3071541e-6
-2.203125e-12, -76.16499996e-6, -45.75922618e-6
-2.197265625e-12, -76.06676445e-6, -45.05601012e-6
-2.19140625e-12, -75.74336287e-6, -43.87725818e-6
-2.185546875e-12, -75.42461709e-6, -41.95654259e-6
-2.1796875e-12, -75.48616056e-6, -39.20106592e-6
-2.173828125e-12, -76.32789069e-6, -35.75477633e-6
-2.16796875e-12, -78.23559801e-6, -31.98128834e-6
-2.162109375e-12, -81.27353924e-6, -28.37076982e-6
-2.15625e-12, -85.24522606e-6, -25.40114373e-6
-2.150390625e-12, -89.73639444e-6, -23.39966745e-6
-2.14453125e-12, -94.2260801e-6, -22.45079326e-6
-2.138671875e-12, -98.22865218e-6, -22.38026084e-6
-2.1328125e-12, -101.4195336e-6, -22.8192171e-6
-2.126953125e-12, -103.7036398e-6, -23.32495878e-6
-2.12109375e-12, -105.2059982e-6, -23.51611651e-6
-2.115234375e-12, -106.1912901e-6, -23.17617971e-6
-2.109375e-12, -106.9435238e-6, -22.29140891e-6
-2.103515625e-12, -107.6501839e-6, -21.01301337e-6
-2.09765625e-12, -108.3325346e-6, -19.56053041e-6
-2.091796875e-12, -108.8464003e-6, -18.10402198e-6
-2.0859375e-12, -108.9518694e-6, -16.66968319e-6
-2.080078125e-12, -108.4251899e-6, -15.10437363e-6
-2.07421875e-12, -107.1706824e-6, -13.11285767e-6
-2.068359375e-12, -105.2904083e-6, -10.35502958e-6
-2.0625e-12, -103.0845797e-6, -6.568541287e-6
-2.056640625e-12, -100.9806259e-6, -1.672798458e-6
-2.05078125e-12, -99.41435602e-6, 4.183341536e-6
-2.044921875e-12, -98.70372287e-6, 10.64786312e-6
-2.0390625e-12, -98.95837928e-6, 17.25722568e-6
-2.033203125e-12, -100.0556361e-6, 23.5616318e-6
-2.02734375e-12, -101.6899641e-6, 29.24085827e-6
-2.021484375e-12, -103.4771591e-6, 34.17179417e-6
-2.015625e-12, -105.0752156e-6, 38.42675428e-6
-2.009765625e-12, -106.2789486e-6, 42.20662179e-6
-2.00390625e-12, -107.0562455e-6, 45.73603296e-6
-1.998046875e-12, -107.5161664e-6, 49.16097046e-6
-1.9921875e-12, -107.8243742e-6, 52.48746751e-6
-1.986328125e-12, -108.1002756e-6, 55.58401832e-6
-1.98046875e-12, -108.3362936e-6, 58.24560658e-6
-1.974609375e-12, -108.3710211e-6, 60.29346763e-6
-1.96875e-12, -107.9278066e-6, 61.67107979e-6
-1.962890625e-12, -106.7056626e-6, 62.49854883e-6
-1.95703125e-12, -104.4892204e-6, 63.0633887e-6
-1.951171875e-12, -101.236538e-6, 63.74926264e-6
-1.9453125e-12, -97.111401e-6, 64.92677958e-6
-1.939453125e-12, -92.44754319e-6, 66.84416332e-6
-1.93359375e-12, -87.65773868e-6, 69.5559682e-6
-1.927734375e-12, -83.12075721e-6, 72.91473372e-6
-1.921875e-12, -79.08611981e-6, 76.62780643e-6
-1.916015625e-12, -75.62852834e-6, 80.35748836e-6
-1.91015625e-12, -72.6647114e-6, 83.82651772e-6
-1.904296875e-12, -70.02269156e-6, 86.88952789e-6
-1.8984375e-12, -67.53503235e-6, 89.54550006e-6
-1.892578125e-12, -65.11948232e-6, 91.89034284e-6
-1.88671875e-12, -62.81541152e-6, 94.03233402e-6
-1.880859375e-12, -60.76134752e-6, 96.00661261e-6
-1.875e-12, -59.12226713e-6, 97.7235791e-6
-1.869140625e-12, -57.99629286e-6, 98.97172312e-6
-1.86328125e-12, -57.34005814e-6, 99.47445543e-6
-1.857421875e-12, -56.94530053e-6, 98.98070912e-6
-1.8515625e-12, -56.47848564e-6, 97.35673905e-6
-1.845703125e-12, -55.56947383e-6, 94.64536101e-6
-1.83984375e-12, -53.91585519e-6, 91.06945324e-6
-1.833984375e-12, -51.36467121e-6, 86.97614347e-6
-1.828125e-12, -47.94377775e-6, 82.74048622e-6
-1.822265625e-12, -43.83528153e-6, 78.66402254e-6
-1.81640625e-12, -39.30445456e-6, 74.90666418e-6
-1.810546875e-12, -34.61177272e-6, 71.47709876e-6
-1.8046875e-12, -29.93954065e-6, 68.28217697e-6
-1.798828125e-12, -25.35805405e-6, 65.21050079e-6
-1.79296875e-12, -20.84197394e-6, 62.21155628e-6
-1.787109375e-12, -16.32954589e-6, 59.335649e-6
-1.78125e-12, -11.80068813e-6, 56.71910661e-6
-1.775390625e-12, -7.340765925e-6, 54.52388685e-6
-1.76953125e-12, -3.160015193e-6, 52.85929137e-6
-1.763671875e-12, 444.9639396e-9, 51.71862034e-6
-1.7578125e-12, 3.17667583e-6, 50.95517673e-6
-1.751953125e-12, 4.836051804e-6, 50.30571951e-6
-1.74609375e-12, 5.393908135e-6, 49.45270377e-6
-1.740234375e-12, 5.003309272e-6, 48.1048655e-6
-1.734375e-12, 3.947287375e-6, 46.07103017e-6
-1.728515625e-12, 2.545114165e-6, 43.30430618e-6
-1.72265625e-12, 1.05794622e-6, 39.90225237e-6
-1.716796875e-12, -367.3989522e-9, 36.06201679e-6
-1.7109375e-12, -1.697840469e-6, 32.00520085e-6
-1.705078125e-12, -2.965147916e-6, 27.90026943e-6
-1.69921875e-12, -4.197952851e-6, 23.81433507e-6
-1.693359375e-12, -5.368637595e-6, 19.7167519e-6
-1.6875e-12, -6.377767556e-6, 15.53556594e-6
-1.681640625e-12, -7.079070078e-6, 11.24280082e-6
-1.67578125e-12, -7.330502632e-6, 6.928004549e-6
-1.669921875e-12, -7.049044218e-6, 2.821255297e-6
-1.6640625e-12, -6.249482885e-6, -751.6948306e-9
-1.658203125e-12, -5.056383851e-6, -3.467339219e-6
-1.65234375e-12, -3.687914118e-6, -5.113562101e-6
-1.646484375e-12, -2.416830175e-6, -5.660540623e-6
-1.640625e-12, -1.517662784e-6, -5.260674233e-6
-1.634765625e-12, -1.211672733e-6, -4.178268323e-6
-1.62890625e-12, -1.623278399e-6, -2.683179304e-6
-1.623046875e-12, -2.761776288e-6, -959.0773992e-9
-1.6171875e-12, -4.537422727e-6, 931.9638309e-9
-1.611328125e-12, -6.810066069e-6, 3.016407606e-6
-1.60546875e-12, -9.454320155e-6, 5.330395973e-6
-1.599609375e-12, -12.41443435e-6, 7.840006949e-6
-1.59375e-12, -15.72180147e-6, 10.40422365e-6
-1.587890625e-12, -19.46159516e-6, 12.80074001e-6
-1.58203125e-12, -23.69827407e-6, 14.80182588e-6
-1.576171875e-12, -28.3921678e-6, 16.26226271e-6
-1.5703125e-12, -33.3490403e-6, 17.17636693e-6
-1.564453125e-12, -38.23432186e-6, 17.67800724e-6
-1.55859375e-12, -42.65607289e-6, 17.98672313e-6
-1.552734375e-12, -46.28761449e-6, 18.32916632e-6
-1.546875e-12, -48.97828387e-6, 18.87502148e-6
-1.541015625e-12, -50.80130524e-6, 19.71607662e-6
-1.53515625e-12, -52.01313641e-6, 20.89256457e-6
-1.529296875e-12, -52.93837169e-6, 22.44554544e-6
-1.5234375e-12, -53.82997649e-6, 24.46109099e-6
-1.517578125e-12, -54.76871603e-6, 27.07770885e-6
-1.51171875e-12, -55.65004863e-6, 30.44936086e-6
-1.505859375e-12, -56.26734176e-6, 34.68139805e-6
-1.5e-12, -56.45462169e-6, 39.77270398e-6
-1.494140625e-12, -56.22155693e-6, 45.59600016e-6
-1.48828125e-12, -55.81312741e-6, 51.93011835e-6
-1.482421875e-12, -55.65793532e-6, 58.53203151e-6
-1.4765625e-12, -56.21906844e-6, 65.21551313e-6
-1.470703125e-12, -57.80749975e-6, 71.89811901e-6
-1.46484375e-12, -60.43891938e-6, 78.59193673e-6
-1.458984375e-12, -63.80019099e-6, 85.34030763e-6
-1.453125e-12, -67.34663966e-6, 92.13012931e-6
-1.447265625e-12, -70.49514101e-6, 98.82426323e-6
-1.44140625e-12, -72.83498526e-6, 105.1531896e-6
-1.435546875e-12, -74.26796197e-6, 110.7805868e-6
-1.4296875e-12, -75.01650372e-6, 115.4239357e-6
-1.423828125e-12, -75.4931665e-6, 118.9831502e-6
-1.41796875e-12, -76.08354263e-6, 121.6206011e-6
-1.412109375e-12, -76.93305684e-6, 123.7504026e-6
-1.40625e-12, -77.82949353e-6, 125.9290575e-6
-1.400390625e-12, -78.2363251e-6, 128.6803721e-6
-1.39453125e-12, -77.47151174e-6, 132.3182305e-6
-1.388671875e-12, -74.96672115e-6, 136.8377657e-6
-1.3828125e-12, -70.50699e-6, 141.9240325e-6
-1.376953125e-12, -64.35491654e-6, 147.0840565e-6
-1.37109375e-12, -57.20524203e-6, 151.8589544e-6
-1.365234375e-12, -49.97907331e-6, 156.0369518e-6
-1.359375e-12, -43.52771375e-6, 159.7808705e-6
-1.353515625e-12, -38.35113071e-6, 163.6100277e-6
-1.34765625e-12, -34.43255192e-6, 168.2286572e-6
-1.341796875e-12, -31.25018047e-6, 174.2525293e-6
-1.3359375e-12, -27.96464793e-6, 181.9299221e-6
-1.330078125e-12, -23.71914141e-6, 190.9643449e-6
-1.32421875e-12, -17.94974501e-6, 200.5177727e-6
-1.318359375e-12, -10.59950809e-6, 209.4126179e-6
-1.3125e-12, -2.161582594e-6, 216.4787159e-6
-1.306640625e-12, 6.467029854e-6, 220.9341771e-6
-1.30078125e-12, 14.27788778e-6, 222.6680625e-6
-1.294921875e-12, 20.49892829e-6, 222.3182175e-6
-1.2890625e-12, 24.88790005e-6, 221.1025714e-6
-1.283203125e-12, 27.87606331e-6, 220.4455309e-6
-1.27734375e-12, 30.50976864e-6, 221.5141153e-6
-1.271484375e-12, 34.19618709e-6, 224.81522e-6
-1.265625e-12, 40.31722574e-6, 229.99187e-6
-1.259765625e-12, 49.8166629e-6, 235.8956971e-6
-1.25390625e-12, 62.87852551e-6, 240.9245958e-6
-1.248046875e-12, 78.79558724e-6, 243.5276355e-6
-1.2421875e-12, 96.0795035e-6, 242.7225079e-6
-1.236328125e-12, 112.7997457e-6, 238.4626529e-6
-1.23046875e-12, 127.0733885e-6, 231.7341991e-6
-1.224609375e-12, 137.5795599e-6, 224.3430281e-6
-1.21875e-12, 143.9555876e-6, 218.4443196e-6
-1.212890625e-12, 146.9539304e-6, 215.9428775e-6
-1.20703125e-12, 148.2970656e-6, 217.930521e-6
-1.201171875e-12, 150.2482243e-6, 224.3174347e-6
-1.1953125e-12, 154.9979102e-6, 233.7623289e-6
-1.189453125e-12, 164.025775e-6, 243.9276884e-6
-1.18359375e-12, 177.6155532e-6, 252.0030834e-6
-1.177734375e-12, 194.6692224e-6, 255.3724721e-6
-1.171875e-12, 212.8915088e-6, 252.2657458e-6
-1.166015625e-12, 229.3168197e-6, 242.2369489e-6
-1.16015625e-12, 241.0551724e-6, 226.3495062e-6
-1.154296875e-12, 246.0690586e-6, 207.0132456e-6
-1.1484375e-12, 243.7782749e-6, 187.4953861e-6
-1.142578125e-12, 235.3291152e-6, 171.2023133e-6
-1.13671875e-12, 223.4470359e-6, 160.8855754e-6
-1.130859375e-12, 211.8952384e-6, 157.9513599e-6
-1.125e-12, 204.6581727e-6, 162.0401098e-6
-1.119140625e-12, 205.0347045e-6, 170.9915611e-6
-1.11328125e-12, 214.8461972e-6, 181.2287285e-6
-1.107421875e-12, 233.9380467e-6, 188.4987867e-6
-1.1015625e-12, 260.0885291e-6, 188.8212923e-6
-1.095703125e-12, 289.3527595e-6, 179.4368025e-6
-1.08984375e-12, 316.780898e-6, 159.5378819e-6
-1.083984375e-12, 337.3752974e-6, 130.6049302e-6
-1.078125e-12, 347.1033144e-6, 96.25316388e-6
-1.072265625e-12, 343.7680357e-6, 61.6048256e-6
-1.06640625e-12, 327.5601157e-6, 32.30635987e-6
-1.060546875e-12, 301.1675062e-6, 13.38887084e-6
-1.0546875e-12, 269.3985524e-6, 8.204288237e-6
-1.048828125e-12, 238.3655836e-6, 17.65368233e-6
-1.04296875e-12, 214.3646665e-6, 39.86458071e-6
-1.037109375e-12, 202.6548378e-6, 70.38641116e-6
-1.03125e-12, 206.3710976e-6, 102.8766499e-6
-1.025390625e-12, 225.7902666e-6, 130.1630061e-6
-1.01953125e-12, 258.1078369e-6, 145.5025529e-6
-1.013671875e-12, 297.788404e-6, 143.8249603e-6
-1.0078125e-12, 337.4420634e-6, 122.7466934e-6
-1.001953125e-12, 369.0779386e-6, 83.17521571e-6
-996.09375e-15, 385.514947e-6, 29.38288892e-6
-990.234375e-15, 381.7023406e-6, -31.48765938e-6
-984.375e-15, 355.7211947e-6, -90.43204463e-6
-978.515625e-15, 309.295599e-6, -137.9622621e-6
-972.65625e-15, 247.7249278e-6, -165.6399306e-6
-966.796875e-15, 179.2402493e-6, -167.5138841e-6
-960.9375e-15, 113.8743905e-6, -141.2185238e-6
-955.078125e-15, 62.00585109e-6, -88.54065122e-6
-949.21875e-15, 32.78474512e-6, -15.34896089e-6
-943.359375e-15, 32.66997341e-6, 69.11487535e-6
-937.5e-15, 64.29823128e-6, 153.4819264e-6
-931.640625e-15, 125.8664109e-6, 225.8548984e-6
-925.78125e-15, 211.1417205e-6, 275.527617e-6
-919.921875e-15, 310.1253668e-6, 294.5808434e-6
-914.0625e-15, 410.2981341e-6, 279.1327724e-6
-908.203125e-15, 498.2856605e-6, 230.0719059e-6
-902.34375e-15, 561.7141227e-6, 153.1672221e-6
-896.484375e-15, 590.9959952e-6, 58.52760701e-6
-890.625e-15, 580.7957536e-6, -40.53758988e-6
-884.765625e-15, 530.973321e-6, -129.1290666e-6
-878.90625e-15, 446.8779093e-6, -192.6471915e-6
-873.046875e-15, 338.9521985e-6, -218.7253548e-6
-867.1875e-15, 221.6925994e-6, -198.957417e-6
-861.328125e-15, 112.0853653e-6, -130.1897353e-6
-855.46875e-15, 27.69485625e-6, -15.20200261e-6
-849.609375e-15, -15.38296089e-6, 137.3191738e-6
-843.75e-15, -4.472554415e-6, 313.5177115e-6
-837.890625e-15, 68.04718487e-6, 495.7309004e-6
-832.03125e-15, 203.6218577e-6, 664.3192458e-6
-826.171875e-15, 397.0562029e-6, 799.757096e-6
-820.3125e-15, 636.7752372e-6, 884.7572537e-6
-814.453125e-15, 905.7983802e-6, 906.2066417e-6
-808.59375e-15, 1.183328436e-3, 856.7135515e-6
-802.734375e-15, 1.446785585e-3, 735.6056074e-6
-796.875e-15, 1.674068645e-3, 549.2685394e-6
-791.015625e-15, 1.845807437e-3, 310.7772942e-6
-785.15625e-15, 1.947380269e-3, 38.84003759e-6
-779.296875e-15, 1.970503375e-3, -243.8533464e-6
-773.4375e-15, 1.914246379e-3, -512.7221176e-6
-767.578125e-15, 1.785382242e-3, -743.6205308e-6
-761.71875e-15, 1.598037134e-3, -915.170452e-6
-755.859375e-15, 1.37266337e-3, -1.010876512e-3
-750e-15, 1.134415537e-3, -1.020828977e-3
-744.140625e-15, 911.063562e-6, -942.847059e-6
-738.28125e-15, 730.6214631e-6, -782.9717143e-6
-732.421875e-15, 618.899985e-6, -555.2739713e-6
-726.5625e-15, 597.1993576e-6, -280.9977588e-6
-720.703125e-15, 680.3424235e-6, 12.89625594e-6
-714.84375e-15, 875.2110805e-6, 295.6766864e-6
-708.984375e-15, 1.179897463e-3, 535.1307681e-6
-703.125e-15, 1.583524726e-3, 700.0209379e-6
-697.265625e-15, 2.066738662e-3, 762.5155857e-6
-691.40625e-15, 2.602825122e-3, 700.4013455e-6
-685.546875e-15, 3.159369967e-3, 498.9043936e-6
-679.6875e-15, 3.70034632e-3, 151.9859359e-6
-673.828125e-15, 4.188486988e-3, -336.9738881e-6
-667.96875e-15, 4.587778897e-3, -955.1374722e-6
-662.109375e-15, 4.865904847e-3, -1.680802877e-3
-656.25e-15, 4.99645999e-3, -2.484576029e-3
-650.390625e-15, 4.960788905e-3, -3.331039163e-3
-644.53125e-15, 4.749322737e-3, -4.180808757e-3
-638.671875e-15, 4.362339281e-3, -4.992856145e-3
-632.8125e-15, 3.810114835e-3, -5.726947759e-3
-626.953125e-15, 3.11247802e-3, -6.346052123e-3
-621.09375e-15, 2.297808998e-3, -6.8185615e-3
-615.234375e-15, 1.401552541e-3, -7.120190292e-3
-609.375e-15, 464.3331652e-6, -7.235439771e-3
