# 2022-03-21_21.22.07
# shape = sech2
# FWHM_ps = 0.1
# carrier_nm = 1542
# frep_MHz = 12126
# pow_mW = 8000
# GDD = 0.0
# propa_len = 0.098
# untap_len = 0.01
# taper_len = 0.038
# waist_len = 0.02
# uptap_len = 0.02
# untap_scale = 1.0
# waist_scale = 0.2578947368421053
# workingDir = NL_20110305_12 (Spirou)
# axis = slow
# window_ps = 10.0
# steps = 200
# points = 21700
# 
# wavelength [nm]	 power spectral density [dB]
600.043425	-73.671711
600.163550	-73.694204
600.283723	-73.731262
600.403943	-73.782763
600.524212	-73.848416
600.644529	-73.926410
600.764895	-74.013245
600.885308	-74.104641
601.005770	-74.195903
601.126280	-74.282384
601.246839	-74.360385
601.367446	-74.428201
601.488101	-74.486620
601.608804	-74.538115
601.729557	-74.586016
601.850357	-74.633520
601.971206	-74.684541
602.092104	-74.742821
602.213050	-74.810160
602.334045	-74.886855
602.455089	-74.971789
602.576181	-75.062701
602.697322	-75.155940
602.818511	-75.247236
602.939749	-75.332507
603.061036	-75.407912
603.182372	-75.471558
603.303757	-75.524635
603.425191	-75.569404
603.546673	-75.608706
603.668204	-75.645943
603.789785	-75.686108
603.911414	-75.733188
604.033092	-75.788864
604.154820	-75.853641
604.276596	-75.928233
604.398422	-76.011917
604.520297	-76.102718
604.642220	-76.196966
604.764193	-76.290464
604.886216	-76.378690
605.008287	-76.459102
605.130408	-76.531664
605.252578	-76.597594
605.374798	-76.657340
605.497066	-76.713055
605.619385	-76.768856
605.741752	-76.828700
605.864169	-76.894802
605.986636	-76.969689
606.109152	-77.055763
606.231718	-77.153601
606.354333	-77.260753
606.476998	-77.374635
606.599712	-77.492775
606.722476	-77.612353
606.845290	-77.730698
606.968154	-77.846437
607.091067	-77.958157
607.214030	-78.065628
607.337043	-78.170228
607.460106	-78.274856
607.583219	-78.380953
607.706381	-78.489443
607.829594	-78.602951
607.952856	-78.724368
608.076169	-78.855213
608.199531	-78.994141
608.322944	-79.138014
608.446407	-79.285508
608.569920	-79.434511
608.693483	-79.580339
608.817096	-79.717799
608.940759	-79.845018
609.064473	-79.962450
609.188237	-80.069625
609.312051	-80.165560
609.435916	-80.253616
609.559831	-80.337941
609.683796	-80.421500
609.807812	-80.507233
609.931878	-80.598171
610.055995	-80.693477
610.180162	-80.790573
610.304380	-80.889855
610.428648	-80.993732
610.552967	-81.098019
610.677337	-81.195356
610.801757	-81.282517
610.926228	-81.358714
611.050750	-81.422725
611.175323	-81.471632
611.299946	-81.506118
611.424620	-81.526547
611.549345	-81.532307
611.674121	-81.526503
611.798948	-81.513928
611.923826	-81.498971
612.048755	-81.483795
612.173734	-81.470182
612.298765	-81.458645
612.423847	-81.447708
612.548980	-81.436827
612.674165	-81.425292
612.799400	-81.408592
612.924687	-81.383073
613.050025	-81.345924
613.175414	-81.297124
613.300854	-81.235910
613.426346	-81.163415
613.551889	-81.080567
613.677484	-80.989884
613.803130	-80.895138
613.928827	-80.800413
614.054576	-80.708919
614.180377	-80.623444
614.306229	-80.546705
614.432132	-80.481585
614.558087	-80.427691
614.684094	-80.383055
614.810153	-80.346011
614.936263	-80.313665
615.062425	-80.281912
615.188639	-80.246728
615.314904	-80.203145
615.441222	-80.146447
615.567591	-80.071892
615.694012	-79.978398
615.820486	-79.868597
615.947011	-79.745493
616.073588	-79.612646
616.200217	-79.473629
616.326898	-79.333463
616.453632	-79.198100
616.580417	-79.072846
616.707255	-78.961842
616.834144	-78.865174
616.961086	-78.782377
617.088081	-78.712458
617.215127	-78.655086
617.342226	-78.606601
617.469378	-78.562508
617.596581	-78.517590
617.723837	-78.467061
617.851146	-78.404968
617.978507	-78.329579
618.105920	-78.239923
618.233386	-78.135985
618.360905	-78.018943
618.488476	-77.893330
618.616100	-77.764695
618.743777	-77.637587
618.871506	-77.515424
618.999288	-77.402465
619.127123	-77.302357
619.255011	-77.217872
619.382951	-77.149041
619.510945	-77.094617
619.638991	-77.053244
619.767090	-77.022381
619.895243	-76.997131
620.023448	-76.971990
620.151706	-76.944524
620.280017	-76.913432
620.408382	-76.875712
620.536799	-76.827854
620.665270	-76.769041
620.793794	-76.701840
620.922371	-76.629885
621.051002	-76.557228
621.179686	-76.488786
621.308423	-76.429476
621.437213	-76.382898
621.566057	-76.351490
621.694954	-76.337502
621.823905	-76.343257
621.952909	-76.370097
622.081967	-76.417712
622.211079	-76.483520
622.340244	-76.562463
622.469462	-76.649838
622.598735	-76.742000
622.728061	-76.834185
622.857441	-76.919152
622.986874	-76.989601
623.116361	-77.043168
623.245903	-77.080440
623.375498	-77.101506
623.505147	-77.105680
623.634850	-77.097035
623.764606	-77.083211
623.894417	-77.071510
624.024282	-77.067257
624.154201	-77.075806
624.284174	-77.101858
624.414202	-77.149035
624.544283	-77.221536
624.674419	-77.322604
624.804609	-77.451703
624.934853	-77.605280
625.065151	-77.781516
625.195504	-77.979416
625.325911	-78.192531
625.456373	-78.408790
625.586889	-78.618257
625.717460	-78.814331
625.848085	-78.988349
625.978764	-79.127862
626.109498	-79.224541
626.240287	-79.276590
626.371131	-79.283771
626.502029	-79.247658
626.632982	-79.175903
626.763989	-79.081282
626.895052	-78.972907
627.026169	-78.856743
627.157341	-78.741407
627.288568	-78.637499
627.419850	-78.552135
627.551187	-78.487540
627.682579	-78.444984
627.814026	-78.425574
627.945528	-78.429583
628.077085	-78.454432
628.208697	-78.497109
628.340364	-78.554306
628.472087	-78.618332
628.603865	-78.679949
628.735698	-78.730755
628.867586	-78.761017
628.999530	-78.757640
629.131529	-78.707935
629.263584	-78.606793
629.395694	-78.451749
629.527859	-78.242556
629.660080	-77.982629
629.792357	-77.681718
629.924689	-77.350854
630.057077	-77.001901
630.189520	-76.646594
630.322019	-76.295447
630.454574	-75.956392
630.587184	-75.636671
630.719851	-75.342325
630.852573	-75.077977
630.985351	-74.844010
631.118185	-74.639430
631.251075	-74.463511
631.384021	-74.315156
631.517023	-74.191545
631.650081	-74.088062
631.783195	-73.998331
631.916365	-73.915858
632.049592	-73.834593
632.182874	-73.747720
632.316213	-73.648300
632.449608	-73.529610
632.583059	-73.385880
632.716567	-73.213987
632.850131	-73.014182
632.983751	-72.788977
633.117428	-72.542245
633.251161	-72.279670
633.384951	-72.008007
633.518797	-71.734040
633.652700	-71.463866
633.786660	-71.203792
633.920676	-70.959414
634.054749	-70.734194
634.188879	-70.530447
634.323065	-70.349536
634.457308	-70.192784
634.591608	-70.059251
634.725965	-69.946497
634.860379	-69.852937
634.994850	-69.777581
635.129377	-69.717280
635.263962	-69.666860
635.398604	-69.621446
635.533303	-69.577559
635.668058	-69.531127
635.802872	-69.477256
635.937742	-69.412166
636.072669	-69.333084
636.207654	-69.237896
636.342696	-69.126145
636.477796	-68.999276
636.612953	-68.859230
636.748167	-68.708655
636.883439	-68.550963
637.018768	-68.390596
637.154155	-68.231468
637.289599	-68.076914
637.425101	-67.930004
637.560660	-67.793094
637.696277	-67.668261
637.831952	-67.556912
637.967685	-67.460263
638.103475	-67.378536
638.239324	-67.311555
638.375230	-67.258862
638.511194	-67.219584
638.647215	-67.192833
638.783295	-67.177595
638.919433	-67.171590
639.055629	-67.172133
639.191883	-67.176559
639.328195	-67.182468
639.464565	-67.187039
639.600994	-67.187440
639.737481	-67.181371
639.874025	-67.166471
640.010629	-67.140956
640.147290	-67.104141
640.284010	-67.056276
640.420789	-66.997624
640.557625	-66.928867
640.694521	-66.852296
640.831474	-66.770487
640.968487	-66.685682
641.105558	-66.600573
641.242687	-66.518340
641.379876	-66.441492
641.517123	-66.372254
641.654429	-66.313285
641.791793	-66.267108
641.929216	-66.234604
642.066699	-66.216392
642.204240	-66.213529
642.341840	-66.226455
642.479499	-66.254252
642.617217	-66.295258
642.754994	-66.347523
642.892830	-66.408864
643.030726	-66.476486
643.168680	-66.547647
643.306694	-66.619764
643.444767	-66.689691
643.582899	-66.754016
643.721091	-66.810009
643.859342	-66.855955
643.997652	-66.890502
644.136022	-66.912883
644.274451	-66.923144
644.412940	-66.922416
644.551488	-66.911807
644.690096	-66.892809
644.828763	-66.867565
644.967490	-66.839057
645.106277	-66.810199
645.245124	-66.783222
645.384030	-66.759904
645.522997	-66.741986
645.662023	-66.731490
645.801109	-66.730394
645.940255	-66.739668
646.079460	-66.759719
646.218726	-66.791178
646.358052	-66.835187
646.497438	-66.892136
646.636884	-66.961202
646.776391	-67.042315
646.915957	-67.135740
647.055584	-67.241070
647.195271	-67.357702
647.335019	-67.485374
647.474826	-67.623153
647.614695	-67.768638
647.754623	-67.919474
647.894612	-68.073496
648.034662	-68.228024
648.174772	-68.379883
648.314943	-68.526192
648.455174	-68.663968
648.595466	-68.789666
648.735819	-68.900949
648.876233	-68.995971
649.016707	-69.073399
649.157242	-69.133123
649.297838	-69.176749
649.438495	-69.206758
649.579213	-69.225516
649.719992	-69.235949
649.860832	-69.241554
650.001733	-69.246528
650.142695	-69.254469
650.283718	-69.268840
650.424803	-69.292967
650.565949	-69.329007
650.707156	-69.378470
650.848424	-69.443275
650.989754	-69.525329
651.131145	-69.625098
651.272597	-69.741803
651.414111	-69.875905
651.555687	-70.028225
651.697324	-70.198617
651.839022	-70.386344
651.980782	-70.591123
652.122604	-70.812293
652.264488	-71.048470
652.406433	-71.298571
652.548441	-71.561748
652.690510	-71.836326
652.832640	-72.120167
652.974833	-72.410761
653.117088	-72.706029
653.259405	-73.003671
653.401784	-73.299423
653.544224	-73.588185
653.686727	-73.865140
653.829293	-74.124968
653.971920	-74.362234
654.114609	-74.571882
654.257361	-74.749980
654.400175	-74.891574
654.543052	-74.993224
654.685991	-75.055497
654.828992	-75.081766
654.972056	-75.075028
655.115183	-75.039263
655.258372	-74.981082
655.401623	-74.908046
655.544937	-74.824800
655.688314	-74.733009
655.831754	-74.637360
655.975256	-74.542595
656.118822	-74.451082
656.262450	-74.361988
656.406141	-74.275000
656.549894	-74.191384
656.693711	-74.111153
656.837591	-74.033759
656.981534	-73.959709
657.125540	-73.888318
657.269610	-73.818645
657.413742	-73.750782
657.557938	-73.686295
657.702196	-73.625608
657.846519	-73.567202
657.990904	-73.509953
658.135353	-73.455640
658.279866	-73.406486
658.424441	-73.362472
658.569081	-73.322388
658.713784	-73.286115
658.858550	-73.255704
659.003381	-73.231720
659.148274	-73.213256
659.293232	-73.198616
659.438253	-73.185938
659.583339	-73.173154
659.728488	-73.158398
659.873701	-73.139810
660.018978	-73.113786
660.164318	-73.076058
660.309723	-73.023932
660.455192	-72.956696
660.600725	-72.874432
660.746323	-72.776176
660.891984	-72.663418
661.037710	-72.538274
661.183500	-72.402922
661.329354	-72.260017
661.475272	-72.110687
661.621255	-71.956116
661.767303	-71.796814
661.913415	-71.633722
662.059591	-71.468076
662.205833	-71.299811
662.352138	-71.127139
662.498509	-70.949554
662.644944	-70.768414
662.791443	-70.584351
662.938008	-70.397415
663.084638	-70.208559
663.231332	-70.020135
663.378091	-69.833848
663.524915	-69.650093
663.671804	-69.469439
663.818759	-69.292529
663.965778	-69.120769
664.112863	-68.955272
664.260012	-68.796278
664.407227	-68.643047
664.554507	-68.494702
664.701853	-68.350521
664.849264	-68.209833
664.996740	-68.071934
665.144282	-67.935894
665.291889	-67.800882
665.439561	-67.665872
665.587300	-67.530449
665.735103	-67.394687
665.882973	-67.258905
666.030908	-67.123362
666.178909	-66.988093
666.326976	-66.854250
666.475109	-66.723684
666.623307	-66.597466
666.771571	-66.475726
666.919902	-66.358142
667.068298	-66.244814
667.216761	-66.136084
667.365289	-66.031640
667.513884	-65.930526
667.662545	-65.832355
667.811272	-65.736477
667.960065	-65.641669
668.108925	-65.547454
668.257851	-65.454015
668.406843	-65.361546
668.555902	-65.270205
668.705027	-65.180604
668.854219	-65.093782
669.003478	-65.010591
669.152803	-64.931306
669.302195	-64.855841
669.451653	-64.784582
669.601179	-64.717407
669.750771	-64.653834
669.900430	-64.592923
670.050156	-64.533426
670.199949	-64.474066
670.349808	-64.413398
670.499735	-64.351064
670.649729	-64.286832
670.799790	-64.220680
670.949918	-64.152801
671.100114	-64.083875
671.250377	-64.014719
671.400707	-63.946289
671.551104	-63.879433
671.701569	-63.814987
671.852101	-63.753173
672.002700	-63.693139
672.153368	-63.634070
672.304102	-63.575415
672.454905	-63.516993
672.605775	-63.457797
672.756713	-63.397069
672.907718	-63.334813
673.058791	-63.271268
673.209933	-63.206696
673.361142	-63.141738
673.512419	-63.077710
673.663764	-63.015290
673.815177	-62.954870
673.966658	-62.896825
674.118207	-62.841851
674.269825	-62.790061
674.421510	-62.740899
674.573264	-62.693587
674.725086	-62.647449
674.876977	-62.601698
675.028936	-62.555263
675.180963	-62.507576
675.333059	-62.458803
675.485224	-62.409236
675.637457	-62.358682
675.789758	-62.307596
675.942129	-62.256545
676.094568	-62.206159
676.247075	-62.156634
676.399652	-62.108327
676.552298	-62.061143
676.705012	-62.014532
676.857795	-61.967706
677.010648	-61.919803
677.163569	-61.870280
677.316560	-61.818469
677.469619	-61.763808
677.622748	-61.705853
677.775946	-61.645304
677.929214	-61.582599
678.082551	-61.518059
678.235957	-61.452656
678.389432	-61.388074
678.542977	-61.325430
678.696592	-61.264819
678.850276	-61.206550
679.004030	-61.151155
679.157853	-61.098510
679.311746	-61.048077
679.465709	-60.999007
679.619742	-60.950595
679.773844	-60.902104
679.928017	-60.853077
680.082259	-60.804150
680.236571	-60.755830
680.390954	-60.708751
680.545406	-60.663854
680.699929	-60.622394
680.854522	-60.584984
681.009185	-60.552070
681.163918	-60.523828
681.318722	-60.500646
681.473596	-60.481525
681.628540	-60.465229
681.783555	-60.450586
681.938641	-60.436698
682.093797	-60.422570
682.249023	-60.407730
682.404321	-60.392271
682.559689	-60.376440
682.715128	-60.360667
682.870637	-60.345945
683.026218	-60.333226
683.181869	-60.323293
683.337591	-60.316023
683.493385	-60.311441
683.649249	-60.309307
683.805185	-60.308886
683.961191	-60.308906
684.117269	-60.308027
684.273418	-60.305385
684.429639	-60.300228
684.585930	-60.292228
684.742294	-60.281505
684.898728	-60.268464
685.055234	-60.253592
685.211812	-60.237743
685.368461	-60.221894
685.525182	-60.206462
685.681975	-60.191455
685.838839	-60.176919
685.995775	-60.162345
686.152783	-60.146397
686.309863	-60.128121
686.467014	-60.106719
686.624238	-60.081785
686.781534	-60.052938
686.938902	-60.020654
687.096342	-59.985725
687.253854	-59.948702
687.411438	-59.910565
687.569095	-59.872528
687.726824	-59.835667
687.884626	-59.800328
688.042499	-59.766668
688.200446	-59.734484
688.358465	-59.703333
688.516556	-59.672376
688.674720	-59.640943
688.832957	-59.608308
688.991266	-59.573840
689.149649	-59.537947
689.308104	-59.501146
689.466632	-59.464261
689.625233	-59.428137
689.783906	-59.393422
689.942653	-59.360726
690.101473	-59.330226
690.260367	-59.301640
690.419333	-59.274807
690.578372	-59.248888
690.737485	-59.222812
690.896672	-59.195718
691.055931	-59.167274
691.215264	-59.137806
691.374671	-59.106836
691.534151	-59.074370
691.693704	-59.041222
691.853332	-59.008334
692.013033	-58.976179
692.172807	-58.944875
692.332656	-58.914598
692.492578	-58.885380
692.652575	-58.856109
692.812645	-58.826172
692.972789	-58.795298
693.133007	-58.763049
693.293300	-58.728828
693.453666	-58.692103
693.614107	-58.653503
693.774622	-58.613451
693.935211	-58.572078
694.095875	-58.529874
694.256613	-58.487264
694.417426	-58.444221
694.578313	-58.400526
694.739274	-58.355893
694.900311	-58.310170
695.061421	-58.262694
695.222607	-58.213235
695.383868	-58.161458
695.545203	-58.107378
695.706613	-58.050592
695.868098	-57.991024
696.029658	-57.929470
696.191293	-57.866312
696.353003	-57.802110
696.514789	-57.737280
696.676649	-57.672435
696.838585	-57.607671
697.000596	-57.542793
697.162682	-57.477641
697.324844	-57.412053
697.487081	-57.345593
697.649394	-57.277916
697.811782	-57.208829
697.974246	-57.138489
698.136786	-57.067311
698.299401	-56.995775
698.462092	-56.924323
698.624859	-56.853424
698.787702	-56.783621
698.950621	-56.715140
699.113616	-56.647998
699.276686	-56.582046
699.439833	-56.517103
699.603056	-56.452755
699.766355	-56.388461
699.929731	-56.323961
700.093183	-56.259190
700.256711	-56.194108
700.420315	-56.128726
700.583996	-56.063546
700.747754	-55.999233
700.911588	-55.936436
701.075499	-55.875582
701.239486	-55.817000
701.403550	-55.760760
701.567691	-55.706694
701.731909	-55.654370
701.896203	-55.603307
702.060575	-55.553083
702.225024	-55.503025
702.389549	-55.453042
702.554152	-55.402933
702.718832	-55.353040
702.883589	-55.303602
703.048424	-55.255256
703.213335	-55.208803
703.378324	-55.164498
703.543391	-55.122441
703.708535	-55.082537
703.873757	-55.044608
704.039056	-55.008137
704.204433	-54.972462
704.369887	-54.937222
704.535420	-54.902343
704.701030	-54.867891
704.866718	-54.834083
705.032484	-54.801499
705.198328	-54.770784
705.364250	-54.742342
705.530250	-54.716077
705.696328	-54.692008
705.862485	-54.670021
706.028720	-54.649353
706.195033	-54.629308
706.361424	-54.609390
706.527894	-54.589647
706.694442	-54.570075
706.861069	-54.550990
707.027775	-54.532961
707.194559	-54.516706
707.361422	-54.502586
707.528363	-54.490984
707.695384	-54.481794
707.862483	-54.474862
708.029661	-54.469463
708.196918	-54.465266
708.364254	-54.461773
708.531670	-54.458595
708.699164	-54.455632
708.866738	-54.453391
709.034391	-54.452382
709.202123	-54.453059
709.369935	-54.455846
709.537826	-54.461272
709.705796	-54.469117
709.873847	-54.478792
710.041976	-54.489365
710.210186	-54.500241
710.378475	-54.511023
710.546844	-54.521547
710.715292	-54.531670
710.883821	-54.541957
711.052429	-54.553437
711.221118	-54.566900
711.389887	-54.582784
711.558735	-54.601342
711.727664	-54.622335
711.896673	-54.645191
712.065763	-54.668664
712.234932	-54.691794
712.404183	-54.713951
712.573513	-54.734909
712.742924	-54.754941
712.912416	-54.774870
713.081988	-54.795478
713.251641	-54.817244
713.421375	-54.840433
713.591190	-54.865322
713.761085	-54.891164
713.931061	-54.916554
714.101119	-54.940553
714.271257	-54.962305
714.441476	-54.981382
714.611777	-54.997571
714.782159	-55.011749
714.952622	-55.024850
715.123166	-55.037826
715.293792	-55.051454
715.464499	-55.065455
715.635288	-55.079327
715.806158	-55.091919
715.977110	-55.102308
716.148143	-55.109600
716.319259	-55.112902
716.490456	-55.112418
716.661735	-55.108944
716.833096	-55.103455
717.004538	-55.097035
717.176063	-55.090238
717.347670	-55.083103
717.519359	-55.075015
717.691130	-55.064972
717.862984	-55.051649
718.034920	-55.034226
718.206938	-55.012334
718.379039	-54.986586
718.551222	-54.957880
718.723488	-54.927450
718.895836	-54.896298
719.068267	-54.864907
719.240781	-54.833251
719.413377	-54.801049
719.586057	-54.767461
719.758819	-54.731429
719.931664	-54.692552
720.104593	-54.650851
720.277604	-54.606665
720.450699	-54.560855
720.623876	-54.514455
720.797137	-54.468777
720.970482	-54.424408
721.143910	-54.381287
721.317421	-54.338851
721.491016	-54.296384
721.664694	-54.253082
721.838456	-54.208271
722.012302	-54.161991
722.186231	-54.114904
722.360244	-54.068187
722.534342	-54.023054
722.708523	-53.980588
722.882788	-53.941270
723.057137	-53.905066
723.231570	-53.871425
723.406088	-53.839778
723.580689	-53.809372
723.755375	-53.779727
723.930146	-53.751130
724.105000	-53.724335
724.279940	-53.700336
724.454963	-53.680012
724.630072	-53.664091
724.805265	-53.652840
724.980543	-53.646018
725.155905	-53.642725
725.331353	-53.642298
725.506885	-53.644274
725.682503	-53.648515
725.858205	-53.655217
726.033993	-53.665197
726.209865	-53.679526
726.385823	-53.699136
726.561866	-53.724488
726.737995	-53.755641
726.914209	-53.792114
727.090508	-53.833219
727.266893	-53.878109
727.443364	-53.926175
727.619920	-53.977182
727.796562	-54.031754
727.973290	-54.090558
728.150103	-54.154384
728.327003	-54.223548
728.503988	-54.298120
728.681060	-54.377403
728.858218	-54.459955
729.035461	-54.544595
729.212791	-54.630535
729.390208	-54.717134
729.567710	-54.804169
729.745299	-54.891676
