# 2022-03-21_16.47.51
# shape = sech2
# FWHM_ps = 0.1
# carrier_nm = 1542
# frep_MHz = 12126
# pow_mW = 8000
# GDD = 0.0
# propa_len = 0.11333333333333334
# untap_len = 0.01
# taper_len = 0.05333333333333333
# waist_len = 0.02
# uptap_len = 0.02
# untap_scale = 1.0
# waist_scale = 0.3222222222222222
# workingDir = NL_20110305_12 (Spirou)
# axis = slow
# window_ps = 10.0
# steps = 200
# points = 21700
# 
# wavelength [nm]	 power spectral density [dB]
600.043425	-94.123334
600.163550	-93.452349
600.283723	-92.637530
600.403943	-91.871205
600.524212	-91.258331
600.644529	-90.837738
600.764895	-90.608875
600.885308	-90.544914
601.005770	-90.595600
601.126280	-90.687374
601.246839	-90.730808
601.367446	-90.644720
601.488101	-90.391553
601.608804	-89.996688
601.729557	-89.532030
601.850357	-89.080823
601.971206	-88.712290
602.092104	-88.474188
602.213050	-88.395660
602.334045	-88.492321
602.455089	-88.769710
602.576181	-89.223876
602.697322	-89.838550
602.818511	-90.578517
602.939749	-91.380354
603.061036	-92.147293
603.182372	-92.764408
603.303757	-93.146892
603.425191	-93.294414
603.546673	-93.293863
603.668204	-93.267404
603.789785	-93.322605
603.911414	-93.535373
604.033092	-93.954424
604.154820	-94.609832
604.276596	-95.516185
604.398422	-96.663406
604.520297	-97.982460
604.642220	-99.269848
604.764193	-100.123961
604.886216	-100.151857
605.008287	-99.418780
605.130408	-98.350128
605.252578	-97.284006
605.374798	-96.365971
605.497066	-95.632646
605.619385	-95.077547
605.741752	-94.679759
605.864169	-94.413655
605.986636	-94.250683
606.109152	-94.158100
606.231718	-94.097092
606.354333	-94.022488
606.476998	-93.886629
606.599712	-93.648799
606.722476	-93.287528
606.845290	-92.808378
606.968154	-92.241150
607.091067	-91.628355
607.214030	-91.012571
607.337043	-90.428407
607.460106	-89.899786
607.583219	-89.440496
607.706381	-89.055966
607.829594	-88.745089
607.952856	-88.501707
608.076169	-88.315840
608.199531	-88.174831
608.322944	-88.064672
608.446407	-87.971607
608.569920	-87.883952
608.693483	-87.793846
608.817096	-87.698458
608.940759	-87.600280
609.064473	-87.506405
609.188237	-87.427079
609.312051	-87.373977
609.435916	-87.358605
609.559831	-87.391107
609.683796	-87.479479
609.807812	-87.629071
609.931878	-87.842235
610.055995	-88.117989
610.180162	-88.451600
610.304380	-88.834038
610.428648	-89.251457
610.552967	-89.684883
610.677337	-90.110514
610.801757	-90.501146
610.926228	-90.829129
611.050750	-91.070638
611.175323	-91.210217
611.299946	-91.243934
611.424620	-91.179821
611.549345	-91.035609
611.674121	-90.835022
611.798948	-90.604102
611.923826	-90.368447
612.048755	-90.151479
612.173734	-89.973454
612.298765	-89.850886
612.423847	-89.796142
612.548980	-89.816907
612.674165	-89.915277
612.799400	-90.086470
612.924687	-90.317066
613.050025	-90.583279
613.175414	-90.850526
613.300854	-91.076458
613.426346	-91.219568
613.551889	-91.252347
613.677484	-91.172673
613.803130	-91.005579
613.928827	-90.794125
614.054576	-90.586155
614.180377	-90.424363
614.306229	-90.342116
614.432132	-90.363476
614.558087	-90.505077
614.684094	-90.778263
614.810153	-91.190798
614.936263	-91.747974
615.062425	-92.453124
615.188639	-93.307416
615.314904	-94.308835
615.441222	-95.449935
615.567591	-96.713708
615.694012	-98.066539
615.820486	-99.447315
615.947011	-100.753923
616.073588	-101.836314
616.200217	-102.519237
616.326898	-102.673607
616.453632	-102.294931
616.580417	-101.502890
616.707255	-100.465087
616.834144	-99.329360
616.961086	-98.201172
617.088081	-97.148118
617.215127	-96.211092
617.342226	-95.414103
617.469378	-94.771172
617.596581	-94.290692
617.723837	-93.978111
617.851146	-93.837464
617.978507	-93.871908
618.105920	-94.083280
618.233386	-94.470380
618.360905	-95.024903
618.488476	-95.723479
618.616100	-96.514085
618.743777	-97.298985
618.871506	-97.931176
618.999288	-98.260030
619.127123	-98.228109
619.255011	-97.921568
619.382951	-97.504945
619.510945	-97.128682
619.638991	-96.893795
619.767090	-96.860271
619.895243	-97.065054
620.023448	-97.535986
620.151706	-98.300407
620.280017	-99.389745
620.408382	-100.839036
620.536799	-102.671877
620.665270	-104.834941
620.793794	-106.993647
620.922371	-108.303413
621.051002	-108.221732
621.179686	-107.493292
621.308423	-106.982459
621.437213	-107.083950
621.566057	-108.040831
621.694954	-110.280774
621.823905	-115.186980
621.952909	-135.446872
622.081967	-114.152085
622.211079	-107.651499
622.340244	-103.852318
622.469462	-101.244522
622.598735	-99.354005
622.728061	-97.970239
622.857441	-96.982846
622.986874	-96.329061
623.116361	-95.972709
623.245903	-95.894861
623.375498	-96.089684
623.505147	-96.563072
623.634850	-97.333269
623.764606	-98.433197
623.894417	-99.913557
624.024282	-101.840558
624.154201	-104.252507
624.284174	-106.897071
624.414202	-108.448550
624.544283	-107.531943
624.674419	-105.575303
624.804609	-103.881211
624.934853	-102.697808
625.065151	-101.997046
625.195504	-101.729630
625.325911	-101.869138
625.456373	-102.418772
625.586889	-103.417218
625.717460	-104.953831
625.848085	-107.204082
625.978764	-110.488550
626.109498	-114.957767
626.240287	-116.107716
626.371131	-111.948084
626.502029	-108.596155
626.632982	-106.391072
626.763989	-104.978714
626.895052	-104.154790
627.026169	-103.816465
627.157341	-103.918775
627.288568	-104.452368
627.419850	-105.424659
627.551187	-106.811279
627.682579	-108.379051
627.814026	-109.284964
627.945528	-108.485419
628.077085	-106.504378
628.208697	-104.434280
628.340364	-102.694985
628.472087	-101.345323
628.603865	-100.358558
628.735698	-99.701202
628.867586	-99.350078
628.999530	-99.295169
629.131529	-99.540333
629.263584	-100.105695
629.395694	-101.033605
629.527859	-102.401844
629.660080	-104.353513
629.792357	-107.170802
629.924689	-111.457579
630.057077	-117.505190
630.189520	-115.106953
630.322019	-110.008398
630.454574	-106.884394
630.587184	-104.927001
630.719851	-103.715732
630.852573	-103.056834
630.985351	-102.859925
631.118185	-103.092484
631.251075	-103.766200
631.384021	-104.942513
631.517023	-106.764097
631.650081	-109.555495
631.783195	-114.219994
631.916365	-125.286324
632.049592	-120.212150
632.182874	-112.751114
632.316213	-109.112882
632.449608	-106.917003
632.583059	-105.536193
632.716567	-104.715591
632.850131	-104.327910
632.983751	-104.298701
633.117428	-104.572290
633.251161	-105.085599
633.384951	-105.736308
633.518797	-106.347447
633.652700	-106.673508
633.786660	-106.525989
633.920676	-105.938402
634.054749	-105.127651
634.188879	-104.314365
634.323065	-103.636412
634.457308	-103.161813
634.591608	-102.921680
634.725965	-102.933066
634.860379	-103.211537
634.994850	-103.779111
635.129377	-104.671182
635.263962	-105.945828
635.398604	-107.698812
635.533303	-110.084061
635.668058	-113.283481
635.802872	-116.773516
635.937742	-116.768631
636.072669	-113.538850
636.207654	-110.693026
636.342696	-108.633714
636.477796	-107.165552
636.612953	-106.128281
636.748167	-105.417301
636.883439	-104.963081
637.018768	-104.716740
637.154155	-104.642110
637.289599	-104.711656
637.425101	-104.904258
637.560660	-105.204143
637.696277	-105.600439
637.831952	-106.086650
637.967685	-106.659229
638.103475	-107.313610
638.239324	-108.036487
638.375230	-108.791964
638.511194	-109.500176
638.647215	-110.020357
638.783295	-110.176971
638.919433	-109.861912
639.055629	-109.130750
639.191883	-108.159728
639.328195	-107.126695
639.464565	-106.151012
639.600994	-105.297748
639.737481	-104.598911
639.874025	-104.070541
640.010629	-103.723195
640.147290	-103.567346
640.284010	-103.616749
640.420789	-103.891938
640.557625	-104.425053
640.694521	-105.267249
640.831474	-106.503336
640.968487	-108.285982
641.105558	-110.929374
641.242687	-115.252623
641.379876	-124.780142
641.517123	-122.071662
641.654429	-113.984111
641.791793	-109.909432
641.929216	-107.297151
642.066699	-105.480225
642.204240	-104.190951
642.341840	-103.298295
642.479499	-102.731650
642.617217	-102.452153
642.754994	-102.440314
642.892830	-102.690119
643.030726	-103.205639
643.168680	-103.997986
643.306694	-105.077953
643.444767	-106.432743
643.582899	-107.956640
643.721091	-109.294756
643.859342	-109.788244
643.997652	-109.118593
644.136022	-107.803924
644.274451	-106.447367
644.412940	-105.318416
644.551488	-104.490173
644.690096	-103.971902
644.828763	-103.761842
644.967490	-103.865833
645.106277	-104.306393
645.245124	-105.132696
645.384030	-106.439870
645.522997	-108.413857
645.662023	-111.450691
645.801109	-116.442107
645.940255	-120.849993
646.079460	-114.514634
646.218726	-109.725039
646.358052	-106.594218
646.497438	-104.371742
646.636884	-102.722958
646.776391	-101.480384
646.915957	-100.550241
647.055584	-99.875929
647.195271	-99.421984
647.335019	-99.166192
647.474826	-99.095686
647.614695	-99.204933
647.754623	-99.495009
647.894612	-99.973980
648.034662	-100.658340
648.174772	-101.576208
648.314943	-102.773559
648.455174	-104.326350
648.595466	-106.367761
648.735819	-109.156356
648.876233	-113.275116
649.016707	-120.057667
649.157242	-120.689268
649.297838	-114.175844
649.438495	-110.396111
649.579213	-108.014004
649.719992	-106.426755
649.860832	-105.375505
650.001733	-104.734631
650.142695	-104.440788
650.283718	-104.465375
650.424803	-104.803837
650.565949	-105.471694
650.707156	-106.502851
650.848424	-107.942335
650.989754	-109.800407
651.131145	-111.827257
651.272597	-112.926649
651.414111	-111.881118
651.555687	-109.688050
651.697324	-107.575335
651.839022	-105.865702
651.980782	-104.560644
652.122604	-103.611089
652.264488	-102.975091
652.406433	-102.625951
652.548441	-102.551920
652.690510	-102.755765
652.832640	-103.256363
652.974833	-104.093957
653.117088	-105.340627
653.259405	-107.119216
653.401784	-109.626539
653.544224	-112.995191
653.686727	-115.461666
653.829293	-112.957131
653.971920	-109.253259
654.114609	-106.387656
654.257361	-104.253634
654.400175	-102.643927
654.543052	-101.424852
654.685991	-100.514007
654.828992	-99.859500
654.972056	-99.428141
655.115183	-99.198738
655.258372	-99.158334
655.401623	-99.300101
655.544937	-99.622086
655.688314	-100.126303
655.831754	-100.817768
655.975256	-101.702792
656.118822	-102.784627
656.262450	-104.052596
656.406141	-105.456858
656.549894	-106.858171
656.693711	-107.976031
656.837591	-108.475043
656.981534	-108.273545
657.125540	-107.647618
657.269610	-106.937547
657.413742	-106.351895
657.557938	-105.985232
657.702196	-105.878101
657.846519	-106.053595
657.990904	-106.534260
658.135353	-107.347119
658.279866	-108.514520
658.424441	-110.000144
658.569081	-111.509296
658.713784	-112.147056
658.858550	-111.099230
659.003381	-109.048739
659.148274	-106.944700
659.293232	-105.124678
659.438253	-103.631351
659.583339	-102.436164
659.728488	-101.503596
659.873701	-100.805073
660.018978	-100.320828
660.164318	-100.039262
660.309723	-99.956053
660.455192	-100.074170
660.600725	-100.404963
660.746323	-100.970389
660.891984	-101.807380
661.037710	-102.977557
661.183500	-104.587682
661.329354	-106.839004
661.475272	-110.174290
661.621255	-115.864122
661.767303	-124.842619
661.913415	-115.327145
662.059591	-110.025245
662.205833	-106.915628
662.352138	-104.855869
662.498509	-103.442465
662.644944	-102.495230
662.791443	-101.925082
662.938008	-101.689189
663.084638	-101.774458
663.231332	-102.192221
663.378091	-102.978438
663.524915	-104.197764
663.671804	-105.937072
663.818759	-108.195948
663.965778	-110.212009
664.112863	-109.643779
664.260012	-106.807350
664.407227	-103.929064
664.554507	-101.570203
664.701853	-99.690592
664.849264	-98.193331
664.996740	-97.003592
665.144282	-96.069807
665.291889	-95.357326
665.439561	-94.843279
665.587300	-94.513276
665.735103	-94.359483
665.882973	-94.379875
666.030908	-94.578136
666.178909	-94.964084
666.326976	-95.555539
666.475109	-96.381781
666.623307	-97.490018
666.771571	-98.958434
666.919902	-100.925626
667.068298	-103.666631
667.216761	-107.838348
667.365289	-115.372866
667.513884	-115.490691
667.662545	-108.111201
667.811272	-104.105730
667.960065	-101.538781
668.108925	-99.753009
668.257851	-98.474693
668.406843	-97.567678
668.555902	-96.956841
668.705027	-96.598901
668.854219	-96.469778
669.003478	-96.558506
669.152803	-96.864703
669.302195	-97.398473
669.451653	-98.181987
669.601179	-99.253670
669.750771	-100.676520
669.900430	-102.551830
670.050156	-105.034856
670.199949	-108.263895
670.349808	-111.395403
670.499735	-110.716149
670.649729	-107.503893
670.799790	-104.752584
670.949918	-102.727078
671.100114	-101.256991
671.250377	-100.206132
671.400707	-99.488281
671.551104	-99.049415
671.701569	-98.854418
671.852101	-98.878862
672.002700	-99.102651
672.153368	-99.502105
672.304102	-100.038211
672.454905	-100.638792
672.605775	-101.177981
672.756713	-101.477432
672.907718	-101.374726
673.058791	-100.838389
673.209933	-99.992469
673.361142	-99.014618
673.512419	-98.043085
673.663764	-97.157466
673.815177	-96.395980
673.966658	-95.774618
674.118207	-95.299101
674.269825	-94.971420
674.421510	-94.793330
674.573264	-94.768125
674.725086	-94.901440
674.876977	-95.202121
675.028936	-95.683091
675.180963	-96.362254
675.333059	-97.263485
675.485224	-98.416924
675.637457	-99.854630
675.789758	-101.586470
675.942129	-103.506890
676.094568	-105.135470
676.247075	-105.513686
676.399652	-104.398197
676.552298	-102.701033
676.705012	-101.095516
676.857795	-99.776797
677.010648	-98.761032
677.163569	-98.025127
677.316560	-97.545882
677.469619	-97.308867
677.622748	-97.309801
677.775946	-97.554528
677.929214	-98.059442
678.082551	-98.851541
678.235957	-99.964646
678.389432	-101.417050
678.542977	-103.113401
678.696592	-104.535468
678.850276	-104.562589
679.004030	-102.940321
679.157853	-100.756286
679.311746	-98.713921
679.465709	-96.976087
679.619742	-95.532262
679.773844	-94.340398
679.928017	-93.361236
680.082259	-92.564290
680.236571	-91.927991
680.390954	-91.438140
680.545406	-91.086551
680.699929	-90.870091
680.854522	-90.790111
681.009185	-90.852240
681.163918	-91.066400
681.318722	-91.447687
681.473596	-92.017937
681.628540	-92.808901
681.783555	-93.868166
681.938641	-95.269870
682.093797	-97.134596
682.249023	-99.658639
682.404321	-103.053822
682.559689	-106.179411
682.715128	-104.324922
682.870637	-100.404948
683.026218	-97.265908
683.181869	-94.871977
683.337591	-92.993463
683.493385	-91.481371
683.649249	-90.244827
683.805185	-89.226723
683.961191	-88.389572
684.117269	-87.707724
684.273418	-87.162923
684.429639	-86.741537
684.585930	-86.433078
684.742294	-86.229165
684.898728	-86.122859
685.055234	-86.108129
685.211812	-86.179298
685.368461	-86.330175
685.525182	-86.552747
685.681975	-86.835199
685.838839	-87.159204
685.995775	-87.496479
686.152783	-87.806422
686.309863	-88.037630
686.467014	-88.137088
686.624238	-88.067293
686.781534	-87.822593
686.938902	-87.432554
687.096342	-86.949381
687.253854	-86.429574
687.411438	-85.920800
687.569095	-85.457277
687.726824	-85.060881
687.884626	-84.744204
688.042499	-84.513442
688.200446	-84.370705
688.358465	-84.315657
688.516556	-84.346251
688.674720	-84.459036
688.832957	-84.648785
688.991266	-84.907562
689.149649	-85.222915
689.308104	-85.575172
689.466632	-85.934817
689.625233	-86.260692
689.783906	-86.501938
689.942653	-86.606994
690.101473	-86.539459
690.260367	-86.292881
690.419333	-85.893633
690.578372	-85.389470
690.737485	-84.832678
690.896672	-84.268196
691.055931	-83.729242
691.215264	-83.237747
691.374671	-82.807104
691.534151	-82.444777
691.693704	-82.154290
691.853332	-81.936632
692.013033	-81.791264
692.172807	-81.716826
692.332656	-81.711409
692.492578	-81.772651
692.652575	-81.898036
692.812645	-82.085043
692.972789	-82.331093
693.133007	-82.633496
693.293300	-82.989366
693.453666	-83.395119
693.614107	-83.845699
693.774622	-84.333487
693.935211	-84.847027
694.095875	-85.369451
694.256613	-85.877373
694.417426	-86.340829
694.578313	-86.725836
694.739274	-87.000218
694.900311	-87.141245
695.061421	-87.142685
695.222607	-87.016767
695.383868	-86.789474
695.545203	-86.493084
695.706613	-86.159704
695.868098	-85.817356
696.029658	-85.488805
696.191293	-85.191909
696.353003	-84.940527
696.514789	-84.745202
696.676649	-84.613889
696.838585	-84.552462
697.000596	-84.564864
697.162682	-84.653211
697.324844	-84.817919
697.487081	-85.057818
697.649394	-85.370313
697.811782	-85.751139
697.974246	-86.194158
698.136786	-86.690740
698.299401	-87.228438
698.462092	-87.789064
698.624859	-88.346650
698.787702	-88.866454
698.950621	-89.306299
699.113616	-89.623739
699.276686	-89.789520
699.439833	-89.800137
699.603056	-89.680900
699.766355	-89.476908
699.929731	-89.238952
700.093183	-89.011977
700.256711	-88.829461
700.420315	-88.712594
700.583996	-88.672208
700.747754	-88.710603
700.911588	-88.822875
701.075499	-88.998376
701.239486	-89.221924
701.403550	-89.474932
701.567691	-89.737506
701.731909	-89.991182
701.896203	-90.221690
702.060575	-90.420690
702.225024	-90.586109
702.389549	-90.720116
702.554152	-90.824827
702.718832	-90.898672
702.883589	-90.933689
703.048424	-90.914653
703.213335	-90.821788
703.378324	-90.637682
703.543391	-90.353896
703.708535	-89.975204
703.873757	-89.519427
704.039056	-89.012071
704.204433	-88.479347
704.369887	-87.943121
704.535420	-87.418828
704.701030	-86.915273
704.866718	-86.436273
705.032484	-85.982755
705.198328	-85.554331
705.364250	-85.150426
705.530250	-84.770990
705.696328	-84.416380
705.862485	-84.086658
706.028720	-83.781041
706.195033	-83.497436
706.361424	-83.232542
706.527894	-82.982441
706.694442	-82.743478
706.861069	-82.513293
707.027775	-82.291469
707.194559	-82.079623
707.361422	-81.880739
707.528363	-81.697916
707.695384	-81.533107
707.862483	-81.385986
708.029661	-81.253427
708.196918	-81.130148
708.364254	-81.010030
708.531670	-80.887956
708.699164	-80.761815
708.866738	-80.633794
709.034391	-80.510417
709.202123	-80.401447
709.369935	-80.317797
709.537826	-80.269273
709.705796	-80.262774
709.873847	-80.300969
710.041976	-80.381763
710.210186	-80.498496
710.378475	-80.640587
710.546844	-80.794912
710.715292	-80.947919
710.883821	-81.087907
711.052429	-81.206556
711.221118	-81.299407
711.389887	-81.365635
711.558735	-81.406988
711.727664	-81.426298
711.896673	-81.426901
712.065763	-81.412782
712.234932	-81.389054
712.404183	-81.362390
712.573513	-81.341034
712.742924	-81.334452
712.912416	-81.352124
713.081988	-81.402218
713.251641	-81.490586
713.421375	-81.619959
713.591190	-81.789676
713.761085	-81.995758
713.931061	-82.231498
714.101119	-82.488930
714.271257	-82.760370
714.441476	-83.040175
714.611777	-83.326433
714.782159	-83.621842
714.952622	-83.933691
715.123166	-84.272525
715.293792	-84.650258
715.464499	-85.078310
715.635288	-85.565156
715.806158	-86.114245
715.977110	-86.722137
716.148143	-87.376458
716.319259	-88.054284
716.490456	-88.721201
716.661735	-89.332736
716.833096	-89.839867
717.004538	-90.197659
717.176063	-90.375024
717.347670	-90.362374
717.519359	-90.173923
717.691130	-89.843981
717.862984	-89.419428
718.034920	-88.950843
718.206938	-88.484501
718.379039	-88.057131
718.551222	-87.693417
718.723488	-87.404822
718.895836	-87.190459
719.068267	-87.037751
719.240781	-86.924352
719.413377	-86.822175
719.586057	-86.702577
719.758819	-86.542937
719.931664	-86.332394
720.104593	-86.072656
720.277604	-85.773612
720.450699	-85.447250
720.623876	-85.103001
720.797137	-84.745418
720.970482	-84.374798
721.143910	-83.990603
721.317421	-83.594952
721.491016	-83.194157
721.664694	-82.798549
721.838456	-82.421284
722.012302	-82.075841
722.186231	-81.773689
722.360244	-81.522735
722.534342	-81.326495
722.708523	-81.184369
722.882788	-81.091871
723.057137	-81.041681
723.231570	-81.025221
723.406088	-81.034356
723.580689	-81.063402
723.755375	-81.110880
723.930146	-81.180225
724.105000	-81.279613
724.279940	-81.420993
724.454963	-81.618134
724.630072	-81.884468
724.805265	-82.231215
724.980543	-82.665759
725.155905	-83.189830
725.331353	-83.797769
725.506885	-84.475153
725.682503	-85.197701
725.858205	-85.932668
726.033993	-86.644318
726.209865	-87.303539
726.385823	-87.898321
726.561866	-88.438380
726.737995	-88.950828
