# 2022-03-16_12.05.13
# shape = sech2
# FWHM_ps = 0.2
# carrier_nm = 1542
# frep_MHz = 12126
# pow_mW = 4000
# GDD = 0.0
# propa_len = 0.17
# untap_len = 0.01
# taper_len = 0.13
# waist_len = 0.02
# uptap_len = 0.01
# untap_scale = 1.0
# waist_scale = 0.3
# workingDir = NL_20110305_12 (Spirou)
# axis = slow
# window_ps = 10.0
# steps = 200
# points = 13000
# 
# wavelength [nm]	 power spectral density [dB]
1000.248639	-52.772802
1000.582480	-52.646845
1000.916545	-52.527460
1001.250832	-52.410983
1001.585343	-52.296337
1001.920077	-52.182196
1002.255035	-52.067118
1002.590218	-51.949747
1002.925624	-51.829028
1003.261255	-51.704412
1003.597111	-51.575986
1003.933192	-51.444459
1004.269497	-51.311034
1004.606029	-51.177211
1004.942785	-51.044539
1005.279768	-50.914367
1005.616977	-50.787664
1005.954412	-50.664935
1006.292074	-50.546214
1006.629962	-50.431120
1006.968077	-50.318966
1007.306420	-50.208852
1007.644990	-50.099719
1007.983787	-49.990433
1008.322813	-49.879923
1008.662067	-49.767326
1009.001549	-49.652091
1009.341259	-49.534049
1009.681199	-49.413457
1010.021367	-49.290983
1010.361765	-49.167633
1010.702392	-49.044614
1011.043250	-48.923179
1011.384337	-48.804461
1011.725654	-48.689375
1012.067202	-48.578547
1012.408980	-48.472252
1012.750989	-48.370367
1013.093230	-48.272370
1013.435702	-48.177429
1013.778405	-48.084565
1014.121341	-47.992837
1014.464508	-47.901465
1014.807908	-47.809893
1015.151540	-47.717846
1015.495405	-47.625340
1015.839503	-47.532644
1016.183835	-47.440197
1016.528400	-47.348519
1016.873198	-47.258088
1017.218231	-47.169257
1017.563498	-47.082204
1017.908999	-46.996929
1018.254735	-46.913245
1018.600707	-46.830789
1018.946913	-46.749062
1019.293354	-46.667476
1019.640032	-46.585436
1019.986945	-46.502444
1020.334094	-46.418241
1020.681480	-46.332884
1021.029102	-46.246736
1021.376961	-46.160345
1021.725058	-46.074252
1022.073391	-45.988853
1022.421962	-45.904336
1022.770772	-45.820694
1023.119819	-45.737757
1023.469104	-45.655257
1023.818628	-45.572900
1024.168391	-45.490415
1024.518393	-45.407570
1024.868634	-45.324174
1025.219115	-45.240053
1025.569836	-45.155040
1025.920796	-45.068996
1026.271997	-44.981884
1026.623438	-44.893849
1026.975121	-44.805279
1027.327044	-44.716785
1027.679208	-44.629054
1028.031614	-44.542647
1028.384262	-44.457851
1028.737152	-44.374659
1029.090284	-44.292845
1029.443659	-44.212106
1029.797276	-44.132188
1030.151137	-44.052965
1030.505240	-43.974456
1030.859587	-43.896776
1031.214178	-43.820091
1031.569013	-43.744581
1031.924093	-43.670418
1032.279417	-43.597727
1032.634985	-43.526569
1032.990799	-43.456958
1033.346858	-43.388888
1033.703162	-43.322341
1034.059712	-43.257254
1034.416509	-43.193475
1034.773551	-43.130729
1035.130841	-43.068626
1035.488377	-43.006719
1035.846160	-42.944591
1036.204190	-42.881952
1036.562468	-42.818681
1036.920994	-42.754812
1037.279768	-42.690469
1037.638790	-42.625785
1037.998061	-42.560846
1038.357581	-42.495677
1038.717350	-42.430253
1039.077368	-42.364527
1039.437636	-42.298455
1039.798154	-42.232003
1040.158922	-42.165194
1040.519940	-42.098149
1040.881209	-42.031093
1041.242729	-41.964297
1041.604501	-41.897999
1041.966524	-41.832331
1042.328798	-41.767319
1042.691325	-41.702943
1043.054103	-41.639222
1043.417135	-41.576241
1043.780419	-41.514112
1044.143956	-41.452880
1044.507746	-41.392467
1044.871791	-41.332719
1045.236088	-41.273466
1045.600641	-41.214542
1045.965447	-41.155807
1046.330508	-41.097167
1046.695824	-41.038623
1047.061395	-40.980324
1047.427222	-40.922531
1047.793304	-40.865514
1048.159642	-40.809439
1048.526237	-40.754327
1048.893088	-40.700091
1049.260196	-40.646608
1049.627561	-40.593803
1049.995183	-40.541670
1050.363063	-40.490226
1050.731201	-40.439473
1051.099597	-40.389384
1051.468251	-40.339923
1051.837164	-40.291023
1052.206336	-40.242585
1052.575767	-40.194493
1052.945458	-40.146644
1053.315409	-40.098963
1053.685619	-40.051401
1054.056090	-40.003925
1054.426821	-39.956499
1054.797814	-39.909052
1055.169067	-39.861454
1055.540582	-39.813513
1055.912359	-39.765008
1056.284398	-39.715756
1056.656698	-39.665624
1057.029262	-39.614512
1057.402088	-39.562345
1057.775177	-39.509091
1058.148530	-39.454783
1058.522146	-39.399502
1058.896027	-39.343360
1059.270171	-39.286497
1059.644580	-39.229093
1060.019254	-39.171386
1060.394193	-39.113688
1060.769397	-39.056354
1061.144867	-38.999707
1061.520602	-38.944003
1061.896604	-38.889452
1062.272872	-38.836234
1062.649407	-38.784480
1063.026210	-38.734246
1063.403279	-38.685521
1063.780616	-38.638243
1064.158221	-38.592317
1064.536094	-38.547639
1064.914235	-38.504124
1065.292645	-38.461716
1065.671325	-38.420373
1066.050273	-38.380049
1066.429491	-38.340675
1066.808979	-38.302159
1067.188738	-38.264386
1067.568766	-38.227218
1067.949066	-38.190463
1068.329636	-38.153868
1068.710478	-38.117135
1069.091592	-38.079941
1069.472977	-38.041963
1069.854635	-38.002894
1070.236565	-37.962427
1070.618768	-37.920302
1071.001243	-37.876354
1071.383993	-37.830540
1071.767016	-37.782916
1072.150313	-37.733619
1072.533884	-37.682856
1072.917730	-37.630893
1073.301850	-37.577985
1073.686246	-37.524330
1074.070917	-37.470067
1074.455864	-37.415326
1074.841087	-37.360276
1075.226586	-37.305072
1075.612362	-37.249802
1075.998415	-37.194506
1076.384745	-37.139265
1076.771353	-37.084236
1077.158238	-37.029607
1077.545401	-36.975573
1077.932843	-36.922357
1078.320564	-36.870241
1078.708564	-36.819525
1079.096842	-36.770425
1079.485401	-36.723023
1079.874240	-36.677308
1080.263358	-36.633244
1080.652757	-36.590777
1081.042438	-36.549794
1081.432399	-36.510098
1081.822641	-36.471438
1082.213166	-36.433576
1082.603972	-36.396285
1082.995061	-36.359352
1083.386433	-36.322590
1083.778087	-36.285864
1084.170025	-36.249051
1084.562246	-36.211992
1084.954751	-36.174480
1085.347541	-36.136280
1085.740615	-36.097137
1086.133973	-36.056786
1086.527617	-36.014955
1086.921546	-35.971414
1087.315761	-35.926014
1087.710262	-35.878701
1088.105050	-35.829540
1088.500124	-35.778722
1088.895485	-35.726553
1089.291134	-35.673378
1089.687070	-35.619527
1090.083294	-35.565270
1090.479806	-35.510812
1090.876607	-35.456307
1091.273696	-35.401860
1091.671075	-35.347516
1092.068744	-35.293271
1092.466702	-35.239118
1092.864950	-35.185108
1093.263489	-35.131367
1093.662319	-35.078108
1094.061440	-35.025639
1094.460852	-34.974317
1094.860555	-34.924489
1095.260551	-34.876428
1095.660840	-34.830282
1096.061421	-34.786044
1096.462295	-34.743546
1096.863462	-34.702478
1097.264923	-34.662439
1097.666678	-34.623013
1098.068727	-34.583839
1098.471071	-34.544658
1098.873710	-34.505334
1099.276644	-34.465852
1099.679874	-34.426277
1100.083400	-34.386689
1100.487222	-34.347153
1100.891340	-34.307692
1101.295756	-34.268241
1101.700468	-34.228607
1102.105478	-34.188477
1102.510787	-34.147496
1102.916393	-34.105364
1103.322298	-34.061869
1103.728502	-34.016907
1104.135005	-33.970528
1104.541807	-33.922944
1104.948909	-33.874482
1105.356312	-33.825543
1105.764015	-33.776571
1106.172019	-33.727979
1106.580324	-33.680038
1106.988931	-33.632808
1107.397840	-33.586160
1107.807051	-33.539864
1108.216564	-33.493679
1108.626380	-33.447418
1109.036500	-33.401030
1109.446923	-33.354626
1109.857649	-33.308426
1110.268680	-33.262692
1110.680016	-33.217682
1111.091657	-33.173595
1111.503602	-33.130496
1111.915854	-33.088284
1112.328411	-33.046727
1112.741275	-33.005507
1113.154445	-32.964251
1113.567922	-32.922556
1113.981706	-32.880084
1114.395798	-32.836665
1114.810198	-32.792299
1115.224906	-32.747087
1115.639923	-32.701172
1116.055249	-32.654681
1116.470884	-32.607694
1116.886829	-32.560251
1117.303084	-32.512402
1117.719650	-32.464208
1118.136526	-32.415685
1118.553713	-32.366751
1118.971212	-32.317300
1119.389022	-32.267310
1119.807145	-32.216888
1120.225580	-32.166223
1120.644328	-32.115512
1121.063389	-32.064897
1121.482763	-32.014460
1121.902452	-31.964286
1122.322454	-31.914509
1122.742771	-31.865288
1123.163404	-31.816720
1123.584351	-31.768789
1124.005614	-31.721396
1124.427193	-31.674448
1124.849089	-31.627905
1125.271301	-31.581765
1125.693830	-31.535998
1126.116677	-31.490506
1126.539842	-31.445165
1126.963324	-31.399896
1127.387126	-31.354706
1127.811246	-31.309661
1128.235685	-31.264813
1128.660444	-31.220137
1129.085522	-31.175530
1129.510922	-31.130887
1129.936641	-31.086138
1130.362682	-31.041202
1130.789044	-30.995948
1131.215728	-30.950250
1131.642734	-30.904075
1132.070063	-30.857505
1132.497714	-30.810699
1132.925689	-30.763837
1133.353987	-30.717014
1133.782610	-30.670184
1134.211556	-30.623224
1134.640827	-30.576063
1135.070424	-30.528726
1135.500345	-30.481271
1135.930593	-30.433745
1136.361166	-30.386176
1136.792067	-30.338565
1137.223294	-30.290918
1137.654848	-30.243263
1138.086730	-30.195630
1138.518940	-30.148019
1138.951479	-30.100431
1139.384346	-30.052932
1139.817543	-30.005619
1140.251069	-29.958529
1140.684925	-29.911602
1141.119111	-29.864709
1141.553628	-29.817693
1141.988475	-29.770427
1142.423655	-29.722881
1142.859166	-29.675118
1143.295009	-29.627192
1143.731185	-29.579073
1144.167694	-29.530682
1144.604536	-29.481926
1145.041711	-29.432716
1145.479221	-29.383032
1145.917065	-29.332967
1146.355245	-29.282660
1146.793759	-29.232263
1147.232609	-29.181986
1147.671795	-29.132028
1148.111317	-29.082458
1148.551177	-29.033258
1148.991373	-28.984424
1149.431907	-28.935978
1149.872779	-28.887964
1150.313989	-28.840494
1150.755538	-28.793670
1151.197426	-28.747454
1151.639653	-28.701710
1152.082220	-28.656279
1152.525128	-28.610984
1152.968376	-28.565638
1153.411966	-28.520127
1153.855897	-28.474398
1154.300169	-28.428405
1154.744784	-28.382100
1155.189742	-28.335437
1155.635042	-28.288372
1156.080687	-28.240897
1156.526674	-28.193052
1156.973007	-28.144893
1157.419683	-28.096474
1157.866705	-28.047911
1158.314072	-27.999376
1158.761786	-27.951007
1159.209845	-27.902846
1159.658251	-27.854871
1160.107004	-27.807073
1160.556104	-27.759492
1161.005553	-27.712175
1161.455349	-27.665116
1161.905494	-27.618238
1162.355989	-27.571450
1162.806832	-27.524652
1163.258026	-27.477738
1163.709570	-27.430595
1164.161464	-27.383118
1164.613710	-27.335215
1165.066307	-27.286811
1165.519256	-27.237887
1165.972558	-27.188471
1166.426212	-27.138570
1166.880219	-27.088124
1167.334580	-27.037100
1167.789295	-26.985573
1168.244364	-26.933719
1168.699788	-26.881706
1169.155567	-26.829616
1169.611702	-26.777499
1170.068193	-26.725481
1170.525041	-26.673740
1170.982245	-26.622403
1171.439807	-26.571528
1171.897726	-26.521173
1172.356004	-26.471451
1172.814640	-26.422497
1173.273635	-26.374340
1173.732989	-26.326897
1174.192703	-26.280084
1174.652778	-26.233886
1175.113213	-26.188291
1175.574009	-26.143219
1176.035167	-26.098527
1176.496687	-26.054087
1176.958569	-26.009818
1177.420814	-25.965625
1177.883422	-25.921386
1178.346394	-25.877002
1178.809730	-25.832413
1179.273430	-25.787599
1179.737496	-25.742556
1180.201927	-25.697284
1180.666723	-25.651810
1181.131886	-25.606198
1181.597416	-25.560505
1182.063312	-25.514817
1182.529576	-25.469253
1182.996209	-25.423906
1183.463209	-25.378853
1183.930579	-25.334207
1184.398317	-25.290093
1184.866426	-25.246588
1185.334904	-25.203716
1185.803754	-25.161490
1186.272974	-25.119943
1186.742566	-25.079098
1187.212529	-25.038905
1187.682865	-24.999257
1188.153574	-24.960058
1188.624656	-24.921227
1189.096112	-24.882651
1189.567942	-24.844169
1190.040147	-24.805611
1190.512726	-24.766829
1190.985681	-24.727706
1191.459012	-24.688109
1191.932720	-24.647880
1192.406804	-24.606892
1192.881265	-24.565074
1193.356104	-24.522370
1193.831322	-24.478724
1194.306918	-24.434095
1194.782893	-24.388488
1195.259248	-24.341970
1195.735982	-24.294625
1196.213097	-24.246516
1196.690593	-24.197732
1197.168471	-24.148413
1197.646730	-24.098704
1198.125371	-24.048732
1198.604395	-23.998602
1199.083803	-23.948447
1199.563594	-23.898437
1200.043769	-23.848704
1200.524329	-23.799316
1201.005273	-23.750347
1201.486604	-23.701894
1201.968320	-23.654015
1202.450422	-23.606701
1202.932912	-23.559939
1203.415789	-23.513754
1203.899054	-23.468150
1204.382707	-23.423057
1204.866748	-23.378370
1205.351179	-23.334007
1205.836000	-23.289887
1206.321211	-23.245893
1206.806812	-23.201910
1207.292805	-23.157852
1207.779189	-23.113646
1208.265965	-23.069202
1208.753134	-23.024411
1209.240696	-22.979185
1209.728651	-22.933464
1210.217000	-22.887197
1210.705744	-22.840354
1211.194883	-22.792946
1211.684417	-22.744996
1212.174347	-22.696524
1212.664673	-22.647556
1213.155396	-22.598130
1213.646516	-22.548307
1214.138034	-22.498181
1214.629951	-22.447872
1215.122266	-22.397514
1215.614980	-22.347223
1216.108095	-22.297111
1216.601609	-22.247278
1217.095524	-22.197801
1217.589841	-22.148781
1218.084559	-22.100361
1218.579679	-22.052665
1219.075202	-22.005764
1219.571128	-21.959707
1220.067458	-21.914555
1220.564191	-21.870325
1221.061330	-21.827001
1221.558874	-21.784628
1222.056823	-21.743270
1222.555178	-21.702897
1223.053940	-21.663410
1223.553109	-21.624721
1224.052686	-21.586778
1224.552671	-21.549504
1225.053065	-21.512812
1225.553867	-21.476661
1226.055079	-21.440994
1226.556702	-21.405666
1227.058735	-21.370522
1227.561179	-21.335451
1228.064035	-21.300385
1228.567303	-21.265268
1229.070983	-21.230027
1229.575077	-21.194586
1230.079585	-21.158843
1230.584506	-21.122693
1231.089842	-21.086089
1231.595594	-21.049018
1232.101761	-21.011500
1232.608345	-20.973539
1233.115345	-20.935077
1233.622762	-20.896059
1234.130597	-20.856495
1234.638851	-20.816453
1235.147523	-20.775998
1235.656615	-20.735191
1236.166126	-20.694110
1236.676058	-20.652759
1237.186411	-20.611111
1237.697185	-20.569233
1238.208381	-20.527274
1238.719999	-20.485348
1239.232040	-20.443514
1239.744505	-20.401822
1240.257394	-20.360295
1240.770708	-20.318938
1241.284446	-20.277827
1241.798610	-20.237088
1242.313201	-20.196807
1242.828218	-20.157013
1243.343662	-20.117697
1243.859534	-20.078832
1244.375834	-20.040413
1244.892563	-20.002488
1245.409721	-19.965117
1245.927309	-19.928291
1246.445327	-19.891968
1246.963777	-19.856096
1247.482657	-19.820620
1248.001970	-19.785525
1248.521716	-19.750853
1249.041894	-19.716611
1249.562506	-19.682703
1250.083553	-19.649035
1250.605034	-19.615560
1251.126950	-19.582249
1251.649302	-19.549104
1252.172091	-19.516152
1252.695316	-19.483346
1253.218979	-19.450545
1253.743079	-19.417670
1254.267619	-19.384731
1254.792597	-19.351739
1255.318015	-19.318688
1255.843874	-19.285563
1256.370173	-19.252297
1256.896913	-19.218785
1257.424095	-19.185001
1257.951720	-19.151012
1258.479787	-19.116852
1259.008298	-19.082480
1259.537254	-19.047845
1260.066654	-19.012909
1260.596499	-18.977645
1261.126790	-18.942095
1261.657527	-18.906344
1262.188711	-18.870400
1262.720342	-18.834207
1263.252422	-18.797734
1263.784950	-18.760993
1264.317928	-18.724033
1264.851355	-18.686926
1265.385232	-18.649701
1265.919560	-18.612318
1266.454340	-18.574746
1266.989572	-18.537007
1267.525256	-18.499151
1268.061394	-18.461238
1268.597985	-18.423294
1269.135031	-18.385281
1269.672531	-18.347166
1270.210487	-18.308977
1270.748899	-18.270780
1271.287768	-18.232614
1271.827094	-18.194482
1272.366877	-18.156370
1272.907119	-18.118269
1273.447820	-18.080197
1273.988981	-18.042216
1274.530601	-18.004375
1275.072683	-17.966664
1275.615226	-17.929066
1276.158230	-17.891597
1276.701697	-17.854275
1277.245627	-17.817124
1277.790021	-17.780187
1278.334879	-17.743465
1278.880202	-17.706911
1279.425991	-17.670520
1279.972245	-17.634309
1280.518966	-17.598270
1281.066155	-17.562408
1281.613811	-17.526720
1282.161936	-17.491145
1282.710529	-17.455637
1283.259593	-17.420202
1283.809126	-17.384823
1284.359131	-17.349468
1284.909607	-17.314121
1285.460555	-17.278745
1286.011976	-17.243293
1286.563870	-17.207763
1287.116237	-17.172154
1287.669080	-17.136438
1288.222397	-17.100595
1288.776191	-17.064614
1289.330460	-17.028477
1289.885207	-16.992189
1290.440431	-16.955779
1290.996133	-16.919251
1291.552314	-16.882578
1292.108975	-16.845760
1292.666115	-16.808824
1293.223737	-16.771800
1293.781839	-16.734740
1294.340424	-16.697666
1294.899491	-16.660559
1295.459041	-16.623441
1296.019075	-16.586387
1296.579593	-16.549446
1297.140597	-16.512659
1297.702086	-16.476052
1298.264061	-16.439631
1298.826524	-16.403451
1299.389474	-16.367596
1299.952912	-16.332103
1300.516839	-16.296992
1301.081255	-16.262289
1301.646162	-16.228014
1302.211559	-16.194204
1302.777448	-16.160902
1303.343829	-16.128110
1303.910702	-16.095818
1304.478069	-16.064039
1305.045930	-16.032768
1305.614285	-16.002001
1306.183136	-15.971740
1306.752483	-15.941951
1307.322326	-15.912603
1307.892666	-15.883697
1308.463504	-15.855221
1309.034841	-15.827155
1309.606677	-15.799490
1310.179012	-15.772193
1310.751849	-15.745243
1311.325186	-15.718661
1311.899025	-15.692443
1312.473366	-15.666578
1313.048211	-15.641076
1313.623559	-15.615932
1314.199412	-15.591151
1314.775770	-15.566768
1315.352634	-15.542786
1315.930004	-15.519207
1316.507881	-15.496058
1317.086266	-15.473354
1317.665159	-15.451108
1318.244562	-15.429341
1318.824474	-15.408055
1319.404897	-15.387263
1319.985831	-15.366991
1320.567276	-15.347236
1321.149234	-15.328000
1321.731706	-15.309292
1322.314691	-15.291112
1322.898190	-15.273451
1323.482205	-15.256291
1324.066736	-15.239615
1324.651783	-15.223413
1325.237347	-15.207665
1325.823430	-15.192328
1326.410031	-15.177342
1326.997151	-15.162668
1327.584791	-15.148282
1328.172952	-15.134132
1328.761634	-15.120148
1329.350839	-15.106250
1329.940566	-15.092381
1330.530817	-15.078504
1331.121592	-15.064563
1331.712891	-15.050492
1332.304716	-15.036233
1332.897068	-15.021743
1333.489946	-15.007001
1334.083352	-14.991992
1334.677287	-14.976686
1335.271750	-14.961066
1335.866744	-14.945129
1336.462268	-14.928885
1337.058323	-14.912369
1337.654910	-14.895599
1338.252029	-14.878582
1338.849682	-14.861352
1339.447869	-14.843955
1340.046591	-14.826448
1340.645848	-14.808872
1341.245641	-14.791244
1341.845972	-14.773606
1342.446840	-14.756020
1343.048246	-14.738534
1343.650191	-14.721167
1344.252677	-14.703914
1344.855702	-14.686799
1345.459269	-14.669863
1346.063379	-14.653111
1346.668030	-14.636512
1347.273226	-14.620023
1347.878965	-14.603634
1348.485250	-14.587344
1349.092080	-14.571110
1349.699456	-14.554866
1350.307380	-14.538547
1350.915851	-14.522131
1351.524871	-14.505597
1352.134441	-14.488884
1352.744560	-14.471929
1353.355231	-14.454697
1353.966453	-14.437182
1354.578227	-14.419377
1355.190555	-14.401243
1355.803436	-14.382760
1356.416872	-14.363946
1357.030863	-14.344831
1357.645411	-14.325432
1358.260515	-14.305760
1358.876177	-14.285849
1359.492397	-14.265767
1360.109176	-14.245574
1360.726516	-14.225319
1361.344416	-14.205063
1361.962877	-14.184880
1362.581901	-14.164863
1363.201487	-14.145084
1363.821637	-14.125603
1364.442352	-14.106498
1365.063632	-14.087843
1365.685478	-14.069706
1366.307891	-14.052136
1366.930871	-14.035177
1367.554420	-14.018875
1368.178538	-14.003247
1368.803226	-13.988301
1369.428485	-13.974035
1370.054315	-13.960432
1370.680717	-13.947456
1371.307693	-13.935053
1371.935242	-13.923164
1372.563366	-13.911725
1373.192065	-13.900643
1373.821341	-13.889811
1374.451193	-13.879135
1375.081623	-13.868516
1375.712632	-13.857843
1376.344221	-13.846990
1376.976389	-13.835857
1377.609139	-13.824365
1378.242470	-13.812430
1378.876384	-13.799969
1379.510881	-13.786925
1380.145963	-13.773290
1380.781629	-13.759057
1381.417881	-13.744227
1382.054720	-13.728834
1382.692147	-13.712959
1383.330161	-13.696699
1383.968765	-13.680142
1384.607959	-13.663404
1385.247743	-13.646640
1385.888119	-13.630015
1386.529087	-13.613663
1387.170648	-13.597729
1387.812804	-13.582382
1388.455554	-13.567786
1389.098899	-13.554056
1389.742842	-13.541292
1390.387381	-13.529605
1391.032519	-13.519086
1391.678256	-13.509762
1392.324592	-13.501633
1392.971529	-13.494700
1393.619068	-13.488931
1394.267208	-13.484235
1394.915952	-13.480491
1395.565300	-13.477581
1396.215253	-13.475356
