# 2022-03-22_08.26.13
# shape = sech2
# FWHM_ps = 0.11
# carrier_nm = 1542
# frep_MHz = 12126
# pow_mW = 8000
# GDD = 0.0
# propa_len = 0.098
# untap_len = 0.01
# taper_len = 0.038
# waist_len = 0.02
# uptap_len = 0.02
# untap_scale = 1.0
# waist_scale = 0.21052631578947373
# workingDir = NL_20110305_12 (Spirou)
# axis = slow
# window_ps = 10.0
# steps = 200
# points = 21700
# 
# wavelength [nm]	 power spectral density [dB]
600.043425	-76.408963
600.163550	-77.027046
600.283723	-77.719370
600.403943	-78.495866
600.524212	-79.420881
600.644529	-80.616564
600.764895	-82.249822
600.885308	-84.562701
601.005770	-87.480390
601.126280	-88.586926
601.246839	-85.674218
601.367446	-82.304647
601.488101	-79.727232
601.608804	-77.861324
601.729557	-76.569268
601.850357	-75.735341
601.971206	-75.273842
602.092104	-75.092021
602.213050	-75.087067
602.334045	-75.156662
602.455089	-75.217516
602.576181	-75.245693
602.697322	-75.276711
602.818511	-75.384959
602.939749	-75.650818
603.061036	-76.135679
603.182372	-76.873164
603.303757	-77.822087
603.425191	-78.867859
603.546673	-79.812368
603.668204	-80.492327
603.789785	-80.886643
603.911414	-81.069972
604.033092	-81.115453
604.154820	-80.986447
604.276596	-80.547854
604.398422	-79.754078
604.520297	-78.710782
604.642220	-77.601979
604.764193	-76.610959
604.886216	-75.831425
605.008287	-75.296659
605.130408	-75.009699
605.252578	-74.958528
605.374798	-75.107632
605.497066	-75.407308
605.619385	-75.801100
605.741752	-76.204153
605.864169	-76.548581
605.986636	-76.839477
606.109152	-77.118055
606.231718	-77.444415
606.354333	-77.861473
606.476998	-78.331184
606.599712	-78.745674
606.722476	-78.896965
606.845290	-78.650422
606.968154	-78.085869
607.091067	-77.413285
607.214030	-76.830035
607.337043	-76.420011
607.460106	-76.194770
607.583219	-76.092762
607.706381	-76.044184
607.829594	-75.966716
607.952856	-75.842500
608.076169	-75.700915
608.199531	-75.611704
608.322944	-75.646177
608.446407	-75.855039
608.569920	-76.241553
608.693483	-76.754128
608.817096	-77.285030
608.940759	-77.673912
609.064473	-77.776182
609.188237	-77.555541
609.312051	-77.120677
609.435916	-76.607740
609.559831	-76.125422
609.683796	-75.723118
609.807812	-75.404005
609.931878	-75.164622
610.055995	-74.967329
610.180162	-74.798584
610.304380	-74.652488
610.428648	-74.543790
610.552967	-74.521900
610.677337	-74.637472
610.801757	-74.940180
610.926228	-75.432436
611.050750	-76.084075
611.175323	-76.782463
611.299946	-77.340991
611.424620	-77.614580
611.549345	-77.578427
611.674121	-77.354554
611.798948	-77.077603
611.923826	-76.792417
612.048755	-76.451495
612.173734	-75.991724
612.298765	-75.411271
612.423847	-74.768072
612.548980	-74.152078
612.674165	-73.630258
612.799400	-73.240107
612.924687	-72.998662
613.050025	-72.918081
613.175414	-73.004366
613.300854	-73.253518
613.426346	-73.663882
613.551889	-74.213545
613.677484	-74.859263
613.803130	-75.547559
613.928827	-76.214878
614.054576	-76.827918
614.180377	-77.383808
614.306229	-77.848030
614.432132	-78.061709
614.558087	-77.796953
614.684094	-77.008517
614.810153	-75.931280
614.936263	-74.863487
615.062425	-73.962900
615.188639	-73.285812
615.314904	-72.816644
615.441222	-72.522746
615.567591	-72.354071
615.694012	-72.273927
615.820486	-72.267865
615.947011	-72.346722
616.073588	-72.539804
616.200217	-72.859421
616.326898	-73.324908
616.453632	-73.934436
616.580417	-74.700386
616.707255	-75.636280
616.834144	-76.689549
616.961086	-77.624773
617.088081	-78.014928
617.215127	-77.579381
617.342226	-76.574835
617.469378	-75.447215
617.596581	-74.452494
617.723837	-73.660087
617.851146	-73.053859
617.978507	-72.580051
618.105920	-72.191957
618.233386	-71.873348
618.360905	-71.651460
618.488476	-71.563203
618.616100	-71.637377
618.743777	-71.882119
618.871506	-72.294696
618.999288	-72.863947
619.127123	-73.578706
619.255011	-74.410749
619.382951	-75.276844
619.510945	-76.027798
619.638991	-76.465862
619.767090	-76.439549
619.895243	-75.989599
620.023448	-75.307122
620.151706	-74.566363
620.280017	-73.847827
620.408382	-73.168123
620.536799	-72.527068
620.665270	-71.945472
620.793794	-71.470219
620.922371	-71.153029
621.051002	-71.026531
621.179686	-71.101534
621.308423	-71.374764
621.437213	-71.833990
621.566057	-72.454682
621.694954	-73.194948
621.823905	-73.983478
621.952909	-74.727974
622.081967	-75.310579
622.211079	-75.632424
622.340244	-75.619741
622.469462	-75.269867
622.598735	-74.667764
622.728061	-73.940554
622.857441	-73.168085
622.986874	-72.411839
623.116361	-71.717337
623.245903	-71.141723
623.375498	-70.720866
623.505147	-70.484187
623.634850	-70.444588
623.764606	-70.599025
623.894417	-70.945301
624.024282	-71.472041
624.154201	-72.151703
624.284174	-72.943265
624.414202	-73.782106
624.544283	-74.595012
624.674419	-75.275396
624.804609	-75.644760
624.934853	-75.568542
625.065151	-75.026340
625.195504	-74.168820
625.325911	-73.194402
625.456373	-72.243529
625.586889	-71.404764
625.717460	-70.719963
625.848085	-70.210281
625.978764	-69.886876
626.109498	-69.756374
626.240287	-69.823935
626.371131	-70.080132
626.502029	-70.511478
626.632982	-71.091467
626.763989	-71.796237
626.895052	-72.613225
627.026169	-73.521172
627.157341	-74.466355
627.288568	-75.274199
627.419850	-75.654027
627.551187	-75.399128
627.682579	-74.592779
627.814026	-73.522994
627.945528	-72.429349
628.077085	-71.440553
628.208697	-70.624712
628.340364	-70.009400
628.472087	-69.602234
628.603865	-69.405627
628.735698	-69.408371
628.867586	-69.590417
628.999530	-69.923301
629.131529	-70.373929
629.263584	-70.935028
629.395694	-71.616549
629.527859	-72.418348
629.660080	-73.292698
629.792357	-74.094836
629.924689	-74.597979
630.057077	-74.617576
630.189520	-74.144968
630.322019	-73.329103
630.454574	-72.367156
630.587184	-71.424873
630.719851	-70.616673
630.852573	-70.003412
630.985351	-69.618354
631.118185	-69.451977
631.251075	-69.480367
631.384021	-69.664896
631.517023	-69.967693
631.650081	-70.368690
631.783195	-70.868966
631.916365	-71.461554
632.049592	-72.102749
632.182874	-72.693463
632.316213	-73.099215
632.449608	-73.230945
632.583059	-73.075152
632.716567	-72.666638
632.850131	-72.064751
632.983751	-71.356970
633.117428	-70.660363
633.251161	-70.091868
633.384951	-69.720174
633.518797	-69.571168
633.652700	-69.627789
633.786660	-69.845803
633.920676	-70.190075
634.054749	-70.633765
634.188879	-71.167686
634.323065	-71.756451
634.457308	-72.295887
634.591608	-72.616962
634.725965	-72.613113
634.860379	-72.321454
634.994850	-71.871849
635.129377	-71.351576
635.263962	-70.779787
635.398604	-70.185883
635.533303	-69.632747
635.668058	-69.209730
635.802872	-68.983387
635.937742	-68.979812
636.072669	-69.189487
636.207654	-69.583201
636.342696	-70.145941
636.477796	-70.883626
636.612953	-71.797874
636.748167	-72.809542
636.883439	-73.646469
637.018768	-73.882768
637.154155	-73.378600
637.289599	-72.445294
637.425101	-71.437496
637.560660	-70.498075
637.696277	-69.643668
637.831952	-68.894727
637.967685	-68.296046
638.103475	-67.899868
638.239324	-67.740128
638.375230	-67.817623
638.511194	-68.112568
638.647215	-68.621970
638.783295	-69.364893
638.919433	-70.412027
639.055629	-71.841839
639.191883	-73.630696
639.328195	-75.370572
639.464565	-75.962514
639.600994	-74.914110
639.737481	-73.206542
639.874025	-71.540324
640.010629	-70.077229
640.147290	-68.844828
640.284010	-67.861296
640.420789	-67.155901
640.557625	-66.734550
640.694521	-66.574533
640.831474	-66.642623
640.968487	-66.918064
641.105558	-67.417517
641.242687	-68.206809
641.379876	-69.399661
641.517123	-71.126150
641.654429	-73.499428
641.791793	-76.372480
641.929216	-78.261690
642.066699	-76.947971
642.204240	-74.241477
642.341840	-71.785521
642.479499	-69.816333
642.617217	-68.307480
642.754994	-67.210715
642.892830	-66.476279
643.030726	-66.045911
643.168680	-65.860318
643.306694	-65.880856
643.444767	-66.113946
643.582899	-66.607696
643.721091	-67.447857
643.859342	-68.732760
643.997652	-70.578738
644.136022	-73.131273
644.274451	-76.510727
644.412940	-79.727663
644.551488	-78.444922
644.690096	-74.729782
644.828763	-71.682607
644.967490	-69.468638
645.106277	-67.904993
645.245124	-66.843143
645.384030	-66.159221
645.522997	-65.753361
645.662023	-65.563921
645.801109	-65.586593
645.940255	-65.862675
646.079460	-66.448709
646.218726	-67.401686
646.358052	-68.770578
646.497438	-70.623110
646.636884	-73.094211
646.776391	-76.347247
646.915957	-79.357409
647.055584	-77.768121
647.195271	-74.020162
647.335019	-71.094053
647.474826	-69.058139
647.614695	-67.671204
647.754623	-66.739148
647.894612	-66.123553
648.034662	-65.754999
648.174772	-65.625423
648.314943	-65.760308
648.455174	-66.195133
648.595466	-66.942041
648.735819	-68.003841
648.876233	-69.384148
649.016707	-71.138926
649.157242	-73.374859
649.297838	-75.972118
649.438495	-77.309410
649.579213	-75.479644
649.719992	-72.744987
649.860832	-70.540303
650.001733	-68.933181
650.142695	-67.774816
650.283718	-66.946921
650.424803	-66.393781
650.565949	-66.110539
650.707156	-66.113027
650.848424	-66.406762
650.989754	-66.968497
651.131145	-67.765388
651.272597	-68.768911
651.414111	-70.010908
651.555687	-71.540857
651.697324	-73.267842
651.839022	-74.613030
651.980782	-74.611798
652.122604	-73.364643
652.264488	-71.791631
652.406433	-70.354869
652.548441	-69.130502
652.690510	-68.125721
652.832640	-67.368761
652.974833	-66.885486
653.117088	-66.685312
653.259405	-66.739575
653.401784	-67.006771
653.544224	-67.451250
653.686727	-68.076905
653.829293	-68.922111
653.971920	-70.008184
654.114609	-71.262811
654.257361	-72.436155
654.400175	-73.167460
654.543052	-73.247729
654.685991	-72.737750
654.828992	-71.789505
654.972056	-70.611121
655.115183	-69.437329
655.258372	-68.441480
655.401623	-67.694168
655.544937	-67.182891
655.688314	-66.869457
655.831754	-66.731985
655.975256	-66.789027
656.118822	-67.084617
656.262450	-67.662640
656.406141	-68.530866
656.549894	-69.658283
656.693711	-70.984059
656.837591	-72.424071
656.981534	-73.750591
657.125540	-74.358285
657.269610	-73.630611
657.413742	-72.015118
657.557938	-70.331410
657.702196	-68.923776
657.846519	-67.815677
657.990904	-66.957084
658.135353	-66.326403
658.279866	-65.944966
658.424441	-65.847357
658.569081	-66.055251
658.713784	-66.574394
658.858550	-67.414375
659.003381	-68.626048
659.148274	-70.325392
659.293232	-72.696949
659.438253	-75.707483
659.583339	-77.368889
659.728488	-75.130417
659.873701	-72.085288
660.018978	-69.713012
660.164318	-67.960138
660.309723	-66.661482
660.455192	-65.732046
660.600725	-65.144656
660.746323	-64.893287
660.891984	-64.971524
661.037710	-65.363742
661.183500	-66.074351
661.329354	-67.170967
661.475272	-68.818774
661.621255	-71.321946
661.767303	-75.185562
661.913415	-80.071129
662.059591	-77.857544
662.205833	-73.121430
662.352138	-69.892256
662.498509	-67.658952
662.644944	-66.079700
662.791443	-65.008255
662.938008	-64.368581
663.084638	-64.112262
663.231332	-64.204630
663.378091	-64.630221
663.524915	-65.411216
663.671804	-66.633586
663.818759	-68.476293
663.965778	-71.283657
664.112863	-75.760423
664.260012	-81.400685
664.407227	-77.227070
664.554507	-72.291808
664.701853	-69.120734
664.849264	-66.954767
664.996740	-65.456472
665.144282	-64.477371
665.291889	-63.932169
665.439561	-63.759894
665.587300	-63.926767
665.735103	-64.442339
665.882973	-65.364480
666.030908	-66.814188
666.178909	-69.010824
666.326976	-72.365596
666.475109	-77.427841
666.623307	-79.157470
666.771571	-73.963440
666.919902	-70.121651
667.068298	-67.586727
667.216761	-65.872805
667.365289	-64.741956
667.513884	-64.071063
667.662545	-63.789345
667.811272	-63.855746
667.960065	-64.258260
668.108925	-65.023552
668.257851	-66.227036
668.406843	-67.989381
668.555902	-70.471236
668.705027	-73.682856
668.854219	-75.881896
669.003478	-73.841199
669.152803	-70.613370
669.302195	-68.088227
669.451653	-66.284789
669.601179	-65.050212
669.750771	-64.281923
669.900430	-63.915164
670.050156	-63.911935
670.199949	-64.257905
670.349808	-64.962011
670.499735	-66.049549
670.649729	-67.548828
670.799790	-69.413456
670.949918	-71.290606
671.100114	-72.127586
671.250377	-71.180977
671.400707	-69.388057
671.551104	-67.673038
671.701569	-66.310175
671.852101	-65.315786
672.002700	-64.661441
672.153368	-64.325536
672.304102	-64.289328
672.454905	-64.544302
672.605775	-65.075054
672.756713	-65.860734
672.907718	-66.870945
673.058791	-68.006844
673.209933	-68.974683
673.361142	-69.311521
673.512419	-68.810395
673.663764	-67.816088
673.815177	-66.761369
673.966658	-65.853695
674.118207	-65.148322
674.269825	-64.668792
674.421510	-64.437528
674.573264	-64.457310
674.725086	-64.689698
674.876977	-65.070383
675.028936	-65.547338
675.180963	-66.077515
675.333059	-66.575943
675.485224	-66.882331
675.637457	-66.863063
675.789758	-66.566072
675.942129	-66.149093
676.094568	-65.712120
676.247075	-65.276310
676.399652	-64.872239
676.552298	-64.557268
676.705012	-64.375039
676.857795	-64.315922
677.010648	-64.339734
677.163569	-64.428494
677.316560	-64.601885
677.469619	-64.866435
677.622748	-65.151324
677.775946	-65.328046
677.929214	-65.328093
678.082551	-65.193337
678.235957	-64.989088
678.389432	-64.725927
678.542977	-64.404002
678.696592	-64.085913
678.850276	-63.856293
679.004030	-63.726467
679.157853	-63.642777
679.311746	-63.574304
679.465709	-63.556212
679.619742	-63.636814
679.773844	-63.805322
679.928017	-63.980826
680.082259	-64.101354
680.236571	-64.164630
680.390954	-64.173491
680.545406	-64.073314
680.699929	-63.807443
680.854522	-63.428407
681.009185	-63.058318
681.163918	-62.773353
681.318722	-62.570052
681.473596	-62.440679
681.628540	-62.423239
681.783555	-62.560611
681.938641	-62.837616
682.093797	-63.154904
682.249023	-63.393721
682.404321	-63.493541
682.559689	-63.439174
682.715128	-63.201456
682.870637	-62.783117
683.026218	-62.293335
683.181869	-61.867439
683.337591	-61.576085
683.493385	-61.416415
683.649249	-61.377246
683.805185	-61.479398
683.961191	-61.741513
684.117269	-62.124101
684.273418	-62.502951
684.429639	-62.749465
684.585930	-62.797864
684.742294	-62.619849
684.898728	-62.209929
685.055234	-61.641085
685.211812	-61.060250
685.368461	-60.600654
685.525182	-60.317462
685.681975	-60.213603
685.838839	-60.298604
685.995775	-60.593192
686.152783	-61.083804
686.309863	-61.670738
686.467014	-62.162690
686.624238	-62.364966
686.781534	-62.177767
686.938902	-61.632301
687.096342	-60.882723
687.253854	-60.129445
687.411438	-59.535249
687.569095	-59.181956
687.726824	-59.077121
687.884626	-59.204375
688.042499	-59.560170
688.200446	-60.134809
688.358465	-60.852762
688.516556	-61.509158
688.674720	-61.817910
688.832957	-61.616961
688.991266	-60.988383
689.149649	-60.142235
689.308104	-59.290781
689.466632	-58.599896
689.625233	-58.166530
689.783906	-58.014568
689.942653	-58.128090
690.101473	-58.493824
690.260367	-59.109596
690.419333	-59.932553
690.578372	-60.779593
690.737485	-61.292976
690.896672	-61.164611
691.055931	-60.450705
691.215264	-59.462105
691.374671	-58.480464
691.534151	-57.686499
691.693704	-57.175755
691.853332	-56.983569
692.013033	-57.100682
692.172807	-57.508006
692.332656	-58.192565
692.492578	-59.108100
692.652575	-60.070397
692.812645	-60.665610
692.972789	-60.505776
693.133007	-59.692144
693.293300	-58.638025
693.453666	-57.646582
693.614107	-56.869086
693.774622	-56.381474
693.935211	-56.215147
694.095875	-56.364325
694.256613	-56.797988
694.417426	-57.473861
694.578313	-58.323575
694.739274	-59.171544
694.900311	-59.669352
695.061421	-59.498944
695.222607	-58.754236
695.383868	-57.801845
695.545203	-56.911657
695.706613	-56.214126
695.868098	-55.778442
696.029658	-55.638234
696.191293	-55.791472
696.353003	-56.206967
696.514789	-56.830868
696.676649	-57.574602
696.838585	-58.254802
697.000596	-58.582195
697.162682	-58.354675
697.324844	-57.683540
697.487081	-56.862286
697.649394	-56.116225
697.811782	-55.559080
697.974246	-55.248750
698.136786	-55.209447
698.299401	-55.432921
698.462092	-55.870062
698.624859	-56.428881
698.787702	-56.977030
698.950621	-57.337551
699.113616	-57.344702
699.276686	-56.976696
699.439833	-56.396371
699.603056	-55.808579
699.766355	-55.342401
699.929731	-55.049019
700.093183	-54.948131
700.256711	-55.040145
700.420315	-55.293928
700.583996	-55.634587
700.747754	-55.954791
700.911588	-56.150170
701.075499	-56.156235
701.239486	-55.965516
701.403550	-55.639722
701.567691	-55.281830
701.731909	-54.982304
701.896203	-54.789860
702.060575	-54.715723
702.225024	-54.750076
702.389549	-54.868818
702.554152	-55.026560
702.718832	-55.160457
702.883589	-55.210878
703.048424	-55.153585
703.213335	-55.002829
703.378324	-54.797500
703.543391	-54.587187
703.708535	-54.422146
703.873757	-54.334608
704.039056	-54.328965
704.204433	-54.388808
704.369887	-54.480664
704.535420	-54.560341
704.701030	-54.579354
704.866718	-54.508244
705.032484	-54.361343
705.198328	-54.178032
705.364250	-53.997328
705.530250	-53.857045
705.696328	-53.789572
705.862485	-53.808216
706.028720	-53.891288
706.195033	-53.993743
706.361424	-54.070812
706.527894	-54.084322
706.694442	-54.003581
706.861069	-53.829289
707.027775	-53.612234
707.194559	-53.419116
707.361422	-53.290364
707.528363	-53.237944
707.695384	-53.263909
707.862483	-53.357090
708.029661	-53.474667
708.196918	-53.554010
708.364254	-53.549533
708.531670	-53.454838
708.699164	-53.289733
708.866738	-53.087705
709.034391	-52.902412
709.202123	-52.784514
709.369935	-52.755486
709.537826	-52.803029
709.705796	-52.896873
709.873847	-52.997848
710.041976	-53.055589
710.210186	-53.025393
710.378475	-52.898537
710.546844	-52.712059
710.715292	-52.518610
710.883821	-52.359163
711.052429	-52.266018
711.221118	-52.265201
711.389887	-52.355023
711.558735	-52.493700
711.727664	-52.614971
711.896673	-52.661504
712.065763	-52.603232
712.234932	-52.434505
712.404183	-52.188423
712.573513	-51.935570
712.742924	-51.747225
712.912416	-51.663422
713.081988	-51.693513
713.251641	-51.831105
713.421375	-52.045545
713.591190	-52.262351
713.761085	-52.375080
713.931061	-52.313121
714.101119	-52.082885
714.271257	-51.750345
714.441476	-51.404474
714.611777	-51.137796
714.782159	-51.017114
714.952622	-51.067012
715.123166	-51.270508
715.293792	-51.579920
715.464499	-51.905835
715.635288	-52.116342
715.806158	-52.090896
715.977110	-51.808710
716.148143	-51.369408
716.319259	-50.917176
716.490456	-50.570268
716.661735	-50.406156
716.833096	-50.459121
717.004538	-50.714763
717.176063	-51.114610
717.347670	-51.543503
717.519359	-51.836303
717.691130	-51.837815
717.862984	-51.514941
718.034920	-50.996413
718.206938	-50.464647
718.379039	-50.061596
718.551222	-49.871783
718.723488	-49.929703
718.895836	-50.220854
719.068267	-50.675992
719.240781	-51.166694
719.413377	-51.504261
719.586057	-51.508968
719.758819	-51.151186
719.931664	-50.587708
720.104593	-50.025720
720.277604	-49.610500
720.450699	-49.420811
720.623876	-49.488840
720.797137	-49.803189
720.970482	-50.293933
721.143910	-50.811992
721.317421	-51.150836
721.491016	-51.132411
721.664694	-50.741774
721.838456	-50.153294
722.012302	-49.587508
722.186231	-49.190139
722.360244	-49.029878
722.534342	-49.130268
722.708523	-49.476160
722.882788	-49.989508
723.057137	-50.502051
723.231570	-50.790398
723.406088	-50.699114
723.580689	-50.257097
723.755375	-49.655843
723.930146	-49.113052
724.105000	-48.769967
724.279940	-48.682748
724.454963	-48.853480
724.630072	-49.251492
724.805265	-49.785808
724.980543	-50.262552
725.155905	-50.439371
725.331353	-50.208403
725.506885	-49.691219
725.682503	-49.102931
725.858205	-48.626733
726.033993	-48.381081
726.209865	-48.409390
726.385823	-48.688934
726.561866	-49.150373
726.737995	-49.664912
726.914209	-50.022768
727.090508	-50.013158
727.266893	-49.624684
727.443364	-49.059210
727.619920	-48.534208
727.796562	-48.187275
727.973290	-48.089471
728.150103	-48.257969
728.327003	-48.646830
728.503988	-49.136566
728.681060	-49.547043
728.858218	-49.684312
729.035461	-49.451354
729.212791	-48.953798
729.390208	-48.415408
729.567710	-48.016063
729.745299	-47.842850
