# 2022-03-21_15.53.23
# shape = sech2
# FWHM_ps = 0.1
# carrier_nm = 1542
# frep_MHz = 12126
# pow_mW = 8000
# GDD = 0.0
# propa_len = 0.09000000000000001
# untap_len = 0.01
# taper_len = 0.03
# waist_len = 0.02
# uptap_len = 0.02
# untap_scale = 1.0
# waist_scale = 0.2111111111111111
# workingDir = NL_20110305_12 (Spirou)
# axis = slow
# window_ps = 10.0
# steps = 200
# points = 21700
# 
# wavelength [nm]	 power spectral density [dB]
600.043425	-91.871834
600.163550	-92.530769
600.283723	-93.114793
600.403943	-93.558581
600.524212	-93.849015
600.644529	-93.965011
600.764895	-93.931284
600.885308	-93.744849
601.005770	-93.333917
601.126280	-92.724112
601.246839	-91.996037
601.367446	-91.264810
601.488101	-90.621769
601.608804	-90.113126
601.729557	-89.735085
601.850357	-89.466450
601.971206	-89.286100
602.092104	-89.157738
602.213050	-89.084608
602.334045	-89.075468
602.455089	-89.172546
602.576181	-89.403032
602.697322	-89.766805
602.818511	-90.252851
602.939749	-90.820791
603.061036	-91.436566
603.182372	-92.071789
603.303757	-92.690703
603.425191	-93.187966
603.546673	-93.427913
603.668204	-93.311896
603.789785	-92.885923
603.911414	-92.283187
604.033092	-91.662058
604.154820	-91.092461
604.276596	-90.584078
604.398422	-90.097917
604.520297	-89.598801
604.642220	-89.101555
604.764193	-88.687567
604.886216	-88.424235
605.008287	-88.346101
605.130408	-88.447107
605.252578	-88.666170
605.374798	-88.928774
605.497066	-89.192475
605.619385	-89.463361
605.741752	-89.801438
605.864169	-90.263582
605.986636	-90.876729
606.109152	-91.557597
606.231718	-92.123762
606.354333	-92.383028
606.476998	-92.295471
606.599712	-91.998239
606.722476	-91.622673
606.845290	-91.168990
606.968154	-90.598971
607.091067	-89.934005
607.214030	-89.282041
607.337043	-88.761098
607.460106	-88.430585
607.583219	-88.277878
607.706381	-88.233392
607.829594	-88.208996
607.952856	-88.156628
608.076169	-88.109532
608.199531	-88.163799
608.322944	-88.415064
608.446407	-88.899133
608.569920	-89.547251
608.693483	-90.177366
608.817096	-90.592497
608.940759	-90.756350
609.064473	-90.812397
609.188237	-90.901730
609.312051	-91.008360
609.435916	-90.948533
609.559831	-90.574672
609.683796	-89.942004
609.807812	-89.273648
609.931878	-88.753443
610.055995	-88.433660
610.180162	-88.243078
610.304380	-88.066617
610.428648	-87.836831
610.552967	-87.599642
610.677337	-87.485754
610.801757	-87.605846
610.926228	-87.969497
611.050750	-88.477587
611.175323	-88.930934
611.299946	-89.176108
611.424620	-89.259282
611.549345	-89.359272
611.674121	-89.610790
611.798948	-89.977002
611.923826	-90.212497
612.048755	-90.053995
612.173734	-89.521462
612.298765	-88.892984
612.423847	-88.427306
612.548980	-88.178844
612.674165	-88.046956
612.799400	-87.877208
612.924687	-87.602818
613.050025	-87.312719
613.175414	-87.171079
613.300854	-87.267763
613.426346	-87.586878
613.551889	-87.986433
613.677484	-88.287194
613.803130	-88.404351
613.928827	-88.445597
614.054576	-88.588680
614.180377	-88.914435
614.306229	-89.310059
614.432132	-89.464442
614.558087	-89.158881
614.684094	-88.538212
614.810153	-87.942950
614.936263	-87.572557
615.062425	-87.418312
615.188639	-87.325338
615.314904	-87.137853
615.441222	-86.851530
615.567591	-86.603059
615.694012	-86.551381
615.820486	-86.752442
615.947011	-87.142164
616.073588	-87.554513
616.200217	-87.833040
616.326898	-87.982883
616.453632	-88.147869
616.580417	-88.467895
616.707255	-88.906499
616.834144	-89.180942
616.961086	-88.975444
617.088081	-88.340048
617.215127	-87.622478
617.342226	-87.097446
617.469378	-86.799916
617.596581	-86.603783
617.723837	-86.354347
617.851146	-86.009980
617.978507	-85.682926
618.105920	-85.521397
618.233386	-85.611804
618.360905	-85.931250
618.488476	-86.366890
618.616100	-86.784311
618.743777	-87.131040
618.871506	-87.496515
618.999288	-88.011259
619.127123	-88.669386
619.255011	-89.216258
619.382951	-89.229839
619.510945	-88.645771
619.638991	-87.843483
619.767090	-87.148828
619.895243	-86.638664
620.023448	-86.207761
620.151706	-85.734124
620.280017	-85.215138
620.408382	-84.756327
620.536799	-84.480055
620.665270	-84.450235
620.793794	-84.644179
620.922371	-84.977646
621.051002	-85.357231
621.179686	-85.759935
621.308423	-86.261808
621.437213	-86.964510
621.566057	-87.879249
621.694954	-88.788032
621.823905	-89.238319
621.952909	-88.979488
622.081967	-88.298721
622.211079	-87.562335
622.340244	-86.876625
622.469462	-86.189472
622.598735	-85.445123
622.728061	-84.713707
622.857441	-84.111683
622.986874	-83.726746
623.116361	-83.576601
623.245903	-83.620460
623.375498	-83.795314
623.505147	-84.056185
623.634850	-84.422476
623.764606	-84.965483
623.894417	-85.743775
624.024282	-86.745056
624.154201	-87.793619
624.284174	-88.550979
624.414202	-88.750290
624.544283	-88.436589
624.674419	-87.840559
624.804609	-87.069724
624.934853	-86.170242
625.065151	-85.222814
625.195504	-84.353711
625.325911	-83.666660
625.456373	-83.204525
625.586889	-82.952676
625.717460	-82.871821
625.848085	-82.923743
625.978764	-83.103839
626.109498	-83.448700
626.240287	-84.002850
626.371131	-84.785342
626.502029	-85.743222
626.632982	-86.735138
626.763989	-87.558877
626.895052	-88.026680
627.026169	-88.052615
627.157341	-87.625280
627.288568	-86.817520
627.419850	-85.805086
627.551187	-84.793089
627.682579	-83.917517
627.814026	-83.242230
627.945528	-82.764175
628.077085	-82.458924
628.208697	-82.304096
628.340364	-82.297700
628.472087	-82.464405
628.603865	-82.832207
628.735698	-83.413667
628.867586	-84.191223
628.999530	-85.088331
629.131529	-85.989873
629.263584	-86.760638
629.395694	-87.237528
629.527859	-87.272966
629.660080	-86.807833
629.792357	-85.963949
629.924689	-84.979876
630.057077	-84.044524
630.189520	-83.261124
630.322019	-82.654443
630.454574	-82.219996
630.587184	-81.947199
630.719851	-81.832811
630.852573	-81.891779
630.985351	-82.143115
631.118185	-82.595176
631.251075	-83.234949
631.384021	-84.009584
631.517023	-84.839595
631.650081	-85.612019
631.783195	-86.180457
631.916365	-86.367925
632.049592	-86.090466
632.182874	-85.427400
632.316213	-84.581057
632.449608	-83.729487
632.583059	-82.975412
632.716567	-82.366314
632.850131	-81.916680
632.983751	-81.628272
633.117428	-81.502837
633.251161	-81.549078
633.384951	-81.774457
633.518797	-82.186217
633.652700	-82.769510
633.786660	-83.478470
633.920676	-84.233111
634.054749	-84.903752
634.188879	-85.337599
634.323065	-85.398941
634.457308	-85.052079
634.591608	-84.406428
634.725965	-83.636441
634.860379	-82.885244
634.994850	-82.236928
635.129377	-81.729736
635.263962	-81.377591
635.398604	-81.178674
635.533303	-81.139402
635.668058	-81.261160
635.802872	-81.558382
635.937742	-82.033315
636.072669	-82.654558
636.207654	-83.363190
636.342696	-84.041166
636.477796	-84.545075
636.612953	-84.724908
636.748167	-84.508046
636.883439	-83.938967
637.018768	-83.182726
637.154155	-82.408766
637.289599	-81.732887
637.425101	-81.213932
637.560660	-80.859264
637.696277	-80.662456
637.831952	-80.617148
637.967685	-80.727822
638.103475	-81.007895
638.239324	-81.462467
638.375230	-82.070370
638.511194	-82.778193
638.647215	-83.480279
638.783295	-84.029941
638.919433	-84.253946
639.055629	-84.054601
639.191883	-83.468153
639.328195	-82.667476
639.464565	-81.838278
639.600994	-81.106599
639.737481	-80.536416
639.874025	-80.146897
640.010629	-79.937634
640.147290	-79.902778
640.284010	-80.049370
640.420789	-80.384097
640.557625	-80.903241
640.694521	-81.577767
640.831474	-82.343499
640.968487	-83.097559
641.105558	-83.688770
641.242687	-83.934575
641.379876	-83.694578
641.517123	-83.011927
641.654429	-82.105548
641.791793	-81.198518
641.929216	-80.424621
642.066699	-79.825592
642.204240	-79.404043
642.341840	-79.160642
642.479499	-79.114786
642.617217	-79.287861
642.754994	-79.690440
642.892830	-80.306496
643.030726	-81.093289
643.168680	-81.974500
643.306694	-82.842797
643.444767	-83.512047
643.582899	-83.721771
643.721091	-83.313001
643.859342	-82.431735
643.997652	-81.397225
644.136022	-80.443202
644.274451	-79.661530
644.412940	-79.061798
644.551488	-78.643226
644.690096	-78.416297
644.828763	-78.404059
644.967490	-78.629609
645.106277	-79.098083
645.245124	-79.789086
645.384030	-80.667144
645.522997	-81.672100
645.662023	-82.683564
645.801109	-83.417176
645.940255	-83.478698
646.079460	-82.767745
646.218726	-81.648908
646.358052	-80.517635
646.497438	-79.556023
646.636884	-78.797201
646.776391	-78.231020
646.915957	-77.859431
647.055584	-77.708815
647.195271	-77.804086
647.335019	-78.152640
647.474826	-78.731072
647.614695	-79.511298
647.754623	-80.461438
647.894612	-81.533701
648.034662	-82.570349
648.174772	-83.161568
648.314943	-82.881534
648.455174	-81.871530
648.595466	-80.639761
648.735819	-79.518295
648.876233	-78.603915
649.016707	-77.896095
649.157242	-77.399012
649.297838	-77.134847
649.438495	-77.126895
649.579213	-77.382475
649.719992	-77.883082
649.860832	-78.594797
650.001733	-79.488971
650.142695	-80.537155
650.283718	-81.621553
650.424803	-82.414774
650.565949	-82.454784
650.707156	-81.686980
650.848424	-80.548214
650.989754	-79.419640
651.131145	-78.443270
651.272597	-77.654452
651.414111	-77.070193
651.555687	-76.720050
651.697324	-76.628952
651.839022	-76.802923
651.980782	-77.221699
652.122604	-77.858739
652.264488	-78.690291
652.406433	-79.691161
652.548441	-80.760834
652.690510	-81.605552
652.832640	-81.783511
652.974833	-81.170068
653.117088	-80.128616
653.259405	-79.038468
653.401784	-78.080226
653.544224	-77.305907
653.686727	-76.740140
653.829293	-76.398707
653.971920	-76.293064
654.114609	-76.425566
654.257361	-76.785454
654.400175	-77.355541
654.543052	-78.110795
654.685991	-79.012422
654.828992	-79.957599
654.972056	-80.709697
655.115183	-80.927787
655.258372	-80.462291
655.401623	-79.550931
655.544937	-78.544144
655.688314	-77.636029
655.831754	-76.904418
655.975256	-76.371005
656.118822	-76.051289
656.262450	-75.960033
656.406141	-76.101424
656.549894	-76.464733
656.693711	-77.020922
656.837591	-77.723869
656.981534	-78.507618
657.125540	-79.265153
657.269610	-79.808136
657.413742	-79.914987
657.557938	-79.501031
657.702196	-78.740542
657.846519	-77.893441
657.990904	-77.132658
658.135353	-76.519657
658.279866	-76.065104
658.424441	-75.781526
658.569081	-75.695833
658.713784	-75.835994
658.858550	-76.198682
659.003381	-76.734978
659.148274	-77.364721
659.293232	-78.012769
659.438253	-78.601347
659.583339	-78.986568
659.728488	-78.975400
659.873701	-78.516672
660.018978	-77.817444
660.164318	-77.121200
660.309723	-76.536776
660.455192	-76.067082
660.600725	-75.707446
660.746323	-75.499671
660.891984	-75.492931
661.037710	-75.694688
661.183500	-76.053435
661.329354	-76.491565
661.475272	-76.960636
661.621255	-77.442471
661.767303	-77.877211
661.913415	-78.107717
662.059591	-77.980412
662.205833	-77.543979
662.352138	-76.997609
662.498509	-76.481965
662.644944	-76.023405
662.791443	-75.618536
662.938008	-75.314728
663.084638	-75.187142
663.231332	-75.266711
663.378091	-75.506577
663.524915	-75.819271
663.671804	-76.156991
663.818759	-76.530483
663.965778	-76.918890
664.112863	-77.197964
664.260012	-77.217068
664.407227	-76.978478
664.554507	-76.621212
664.701853	-76.253961
664.849264	-75.889048
664.996740	-75.517556
665.144282	-75.186522
665.291889	-74.981472
665.439561	-74.946237
665.587300	-75.047590
665.735103	-75.212213
665.882973	-75.411686
666.030908	-75.680369
666.178909	-76.028813
666.326976	-76.358784
666.475109	-76.506074
666.623307	-76.415339
666.771571	-76.189504
666.919902	-75.929681
667.068298	-75.632612
667.216761	-75.271472
667.365289	-74.910923
667.513884	-74.662154
667.662545	-74.580267
667.811272	-74.620651
667.960065	-74.705187
668.108925	-74.816491
668.257851	-75.008652
668.406843	-75.305732
668.555902	-75.617507
668.705027	-75.797523
668.854219	-75.797137
669.003478	-75.691869
669.152803	-75.538660
669.302195	-75.299630
669.451653	-74.953235
669.601179	-74.579664
669.750771	-74.299564
669.900430	-74.160968
670.050156	-74.125092
670.199949	-74.143665
670.349808	-74.230535
670.499735	-74.435437
670.649729	-74.749604
670.799790	-75.064481
670.949918	-75.247473
671.100114	-75.270374
671.250377	-75.196836
671.400707	-75.047611
671.551104	-74.780871
671.701569	-74.413379
671.852101	-74.062164
672.002700	-73.831971
672.153368	-73.727201
672.304102	-73.693695
672.454905	-73.712506
672.605775	-73.818195
672.756713	-74.038152
672.907718	-74.322780
673.058791	-74.561240
673.209933	-74.678977
673.361142	-74.690214
673.512419	-74.622139
673.663764	-74.448697
673.815177	-74.150227
673.966658	-73.798570
674.118207	-73.514515
674.269825	-73.354587
674.421510	-73.289220
674.573264	-73.279070
674.725086	-73.339208
674.876977	-73.510147
675.028936	-73.765649
675.180963	-73.997955
675.333059	-74.107900
675.485224	-74.100837
675.637457	-74.028395
675.789758	-73.889985
675.942129	-73.657085
676.094568	-73.378190
676.247075	-73.152197
676.399652	-73.032110
676.552298	-72.995583
676.705012	-73.001885
676.857795	-73.046849
677.010648	-73.149214
677.163569	-73.294873
677.316560	-73.412041
677.469619	-73.445431
677.622748	-73.407344
677.775946	-73.335669
677.929214	-73.234446
678.082551	-73.092623
678.235957	-72.938273
678.389432	-72.823718
678.542977	-72.771230
678.696592	-72.759497
678.850276	-72.761690
679.004030	-72.780572
679.157853	-72.822482
679.311746	-72.859270
679.465709	-72.845778
679.619742	-72.772852
679.773844	-72.677856
679.928017	-72.598784
680.082259	-72.535671
680.236571	-72.482256
680.390954	-72.460225
680.545406	-72.495048
680.699929	-72.567311
680.854522	-72.624019
681.009185	-72.626720
681.163918	-72.572510
681.318722	-72.471525
681.473596	-72.327758
681.628540	-72.150226
681.783555	-71.974921
681.938641	-71.857613
682.093797	-71.832135
682.249023	-71.889075
682.404321	-72.005677
682.559689	-72.166270
682.715128	-72.349974
682.870637	-72.495840
683.026218	-72.522349
683.181869	-72.399592
683.337591	-72.166614
683.493385	-71.880320
683.649249	-71.582851
683.805185	-71.326408
683.961191	-71.166076
684.117269	-71.137250
684.273418	-71.242839
684.429639	-71.461436
684.585930	-71.756199
684.742294	-72.069711
684.898728	-72.318016
685.055234	-72.400277
685.211812	-72.257427
685.368461	-71.917943
685.525182	-71.477373
685.681975	-71.042033
685.838839	-70.691621
685.995775	-70.479080
686.152783	-70.440345
686.309863	-70.593334
686.467014	-70.921648
686.624238	-71.367688
686.781534	-71.832912
686.938902	-72.189609
687.096342	-72.295091
687.253854	-72.067665
687.411438	-71.568594
687.569095	-70.969419
687.726824	-70.425332
687.884626	-70.024230
688.042499	-69.812914
688.200446	-69.819948
688.358465	-70.054196
688.516556	-70.495122
688.674720	-71.076603
688.832957	-71.664679
688.991266	-72.062542
689.149649	-72.091646
689.308104	-71.717765
689.466632	-71.076456
689.625233	-70.371797
689.783906	-69.771245
689.942653	-69.370300
690.101473	-69.210445
690.260367	-69.300285
690.419333	-69.635306
690.578372	-70.191070
690.737485	-70.890832
690.896672	-71.559198
691.055931	-71.927069
691.215264	-71.793759
691.374671	-71.209401
691.534151	-70.412331
691.693704	-69.638083
691.853332	-69.043517
692.013033	-68.708251
692.172807	-68.657632
692.332656	-68.890871
692.492578	-69.392418
692.652575	-70.115257
692.812645	-70.932324
692.972789	-71.575352
693.133007	-71.708250
693.293300	-71.231696
693.453666	-70.392026
693.614107	-69.506157
693.774622	-68.777616
693.935211	-68.309490
694.095875	-68.145282
694.256613	-68.291329
694.417426	-68.733451
694.578313	-69.435938
694.739274	-70.294122
694.900311	-71.065634
695.061421	-71.393042
695.222607	-71.070461
695.383868	-70.272837
695.545203	-69.350407
695.706613	-68.556907
695.868098	-68.015233
696.029658	-67.770116
696.191293	-67.836033
696.353003	-68.206628
696.514789	-68.848258
696.676649	-69.670859
696.838585	-70.471525
697.000596	-70.920568
697.162682	-70.752084
697.324844	-70.050776
697.487081	-69.146516
697.649394	-68.326036
697.811782	-67.741280
697.974246	-67.451282
698.136786	-67.468279
698.299401	-67.783273
698.462092	-68.371159
698.624859	-69.160409
698.787702	-69.959359
698.950621	-70.429807
699.113616	-70.302372
699.276686	-69.656887
699.439833	-68.794296
699.603056	-67.988082
699.766355	-67.409726
699.929731	-67.135605
700.093183	-67.177209
700.256711	-67.512387
700.420315	-68.098633
700.583996	-68.852008
700.747754	-69.569864
700.911588	-69.912952
701.075499	-69.669385
701.239486	-69.004106
701.403550	-68.221846
701.567691	-67.531451
701.731909	-67.061939
701.896203	-66.891056
702.060575	-67.037403
702.225024	-67.452642
702.389549	-68.041422
702.554152	-68.677560
702.718832	-69.168256
702.883589	-69.248805
703.048424	-68.833653
703.213335	-68.166697
703.378324	-67.535144
703.543391	-67.066193
703.708535	-66.801469
703.873757	-66.785777
704.039056	-67.047901
704.204433	-67.529346
704.369887	-68.062431
704.535420	-68.459452
704.701030	-68.599185
704.866718	-68.408645
705.032484	-67.917450
705.198328	-67.335012
705.364250	-66.887481
705.530250	-66.664252
705.696328	-66.646005
705.862485	-66.812984
706.028720	-67.166334
706.195033	-67.629056
706.361424	-67.995349
706.527894	-68.075368
706.694442	-67.866359
706.861069	-67.473595
707.027775	-67.001684
707.194559	-66.582788
707.361422	-66.356326
707.528363	-66.378890
707.695384	-66.603503
707.862483	-66.949094
708.029661	-67.346457
708.196918	-67.674217
708.364254	-67.736265
708.531670	-67.448218
708.699164	-66.967524
708.866738	-66.501016
709.034391	-66.145573
709.202123	-65.957051
709.369935	-66.003357
709.537826	-66.302717
709.705796	-66.759752
709.873847	-67.205093
710.041976	-67.484295
710.210186	-67.465713
710.378475	-67.093766
710.546844	-66.509882
710.715292	-65.958849
710.883821	-65.600719
711.052429	-65.479475
711.221118	-65.598887
711.389887	-65.966666
711.558735	-66.530964
711.727664	-67.093002
711.896673	-67.373700
712.065763	-67.230993
712.234932	-66.735311
712.404183	-66.067885
712.573513	-65.448152
712.742924	-65.060218
712.912416	-64.981729
713.081988	-65.195264
713.251641	-65.655002
713.421375	-66.296649
713.591190	-66.934854
713.761085	-67.231125
713.931061	-66.978046
714.101119	-66.332505
714.271257	-65.590389
714.441476	-64.968268
714.611777	-64.595384
714.782159	-64.546632
714.952622	-64.834377
715.123166	-65.397954
715.293792	-66.105579
715.464499	-66.739059
715.635288	-66.979988
715.806158	-66.626612
715.977110	-65.873975
716.148143	-65.088433
716.319259	-64.497892
716.490456	-64.191910
716.661735	-64.209193
716.833096	-64.562632
717.004538	-65.201421
717.176063	-65.956131
717.347670	-66.529006
717.519359	-66.614474
717.691130	-66.137072
717.862984	-65.340566
718.034920	-64.567817
718.206938	-64.041565
718.379039	-63.843260
718.551222	-63.979567
718.723488	-64.428001
718.895836	-65.117061
719.068267	-65.849254
719.240781	-66.270650
719.413377	-66.110144
719.586057	-65.477123
719.758819	-64.692398
719.931664	-64.023069
720.104593	-63.632395
720.277604	-63.590361
720.450699	-63.888780
720.623876	-64.455958
720.797137	-65.155895
720.970482	-65.737463
721.143910	-65.857243
721.317421	-65.407154
721.491016	-64.670085
721.664694	-63.974182
721.838456	-63.499339
722.012302	-63.329260
722.186231	-63.499095
722.360244	-63.982780
722.534342	-64.646356
722.708523	-65.236059
722.882788	-65.461855
723.057137	-65.170733
723.231570	-64.503194
723.406088	-63.789957
723.580689	-63.287528
723.755375	-63.093290
723.930146	-63.218400
724.105000	-63.642660
724.279940	-64.276922
724.454963	-64.883929
724.630072	-65.120459
724.805265	-64.828903
724.980543	-64.192245
725.155905	-63.500715
725.331353	-62.981499
725.506885	-62.776604
725.682503	-62.928698
725.858205	-63.387917
726.033993	-64.032262
726.209865	-64.641485
726.385823	-64.878387
726.561866	-64.537439
726.737995	-63.822324
726.914209	-63.097852
727.090508	-62.593678
727.266893	-62.408407
727.443364	-62.586349
727.619920	-63.111769
727.796562	-63.849575
727.973290	-64.508543
728.150103	-64.713069
728.327003	-64.287648
728.503988	-63.470677
728.681060	-62.666169
728.858218	-62.137041
729.035461	-61.980358
729.212791	-62.214302
729.390208	-62.814965
729.567710	-63.663993
729.745299	-64.426970
