# 2022-03-22_11.48.23
# shape = sech2
# FWHM_ps = 0.11
# carrier_nm = 1542
# frep_MHz = 12126
# pow_mW = 8000
# GDD = 0.0
# propa_len = 0.13933333333333334
# untap_len = 0.01
# taper_len = 0.07933333333333334
# waist_len = 0.02
# uptap_len = 0.02
# untap_scale = 1.0
# waist_scale = 0.3526315789473685
# workingDir = NL_20110305_12 (Spirou)
# axis = slow
# window_ps = 10.0
# steps = 200
# points = 21700
# 
# wavelength [nm]	 power spectral density [dB]
600.043425	-132.915579
600.163550	-132.886936
600.283723	-132.949475
600.403943	-133.084767
600.524212	-133.271884
600.644529	-133.489040
600.764895	-133.718277
600.885308	-133.950218
601.005770	-134.186699
601.126280	-134.439989
601.246839	-134.729059
601.367446	-135.074372
601.488101	-135.492838
601.608804	-135.993793
601.729557	-136.575707
601.850357	-137.223261
601.971206	-137.906457
602.092104	-138.582274
602.213050	-139.199916
602.334045	-139.710468
602.455089	-140.076339
602.576181	-140.275722
602.697322	-140.301693
602.818511	-140.160811
602.939749	-139.874367
603.061036	-139.478569
603.182372	-139.018592
603.303757	-138.538009
603.425191	-138.069124
603.546673	-137.628311
603.668204	-137.217770
603.789785	-136.831532
603.911414	-136.464248
604.033092	-136.119377
604.154820	-135.812906
604.276596	-135.572173
604.398422	-135.430783
604.520297	-135.422507
604.642220	-135.575613
604.764193	-135.907108
604.886216	-136.415651
605.008287	-137.069830
605.130408	-137.791283
605.252578	-138.444172
605.374798	-138.863673
605.497066	-138.946011
605.619385	-138.723501
605.741752	-138.320964
605.864169	-137.853266
605.986636	-137.372883
606.109152	-136.876108
606.231718	-136.337378
606.354333	-135.745381
606.476998	-135.121622
606.599712	-134.515503
606.722476	-133.985831
606.845290	-133.584876
606.968154	-133.351644
607.091067	-133.311462
607.214030	-133.478408
607.337043	-133.857987
607.460106	-134.448838
607.583219	-135.243327
607.706381	-136.228123
607.829594	-137.387924
607.952856	-138.713288
608.076169	-140.211526
608.199531	-141.913846
608.322944	-143.840908
608.446407	-145.809720
608.569920	-146.938027
608.693483	-146.085331
608.817096	-143.965749
608.940759	-141.812665
609.064473	-140.040045
609.188237	-138.685468
609.312051	-137.702908
609.435916	-137.035163
609.559831	-136.626060
609.683796	-136.420189
609.807812	-136.363119
609.931878	-136.405645
610.055995	-136.511635
610.180162	-136.666899
610.304380	-136.883087
610.428648	-137.193648
610.552967	-137.644134
610.677337	-138.281270
610.801757	-139.143591
610.926228	-140.249398
611.050750	-141.568671
611.175323	-142.957076
611.299946	-144.057827
611.424620	-144.375832
611.549345	-143.759002
611.674121	-142.572154
611.798948	-141.211548
611.923826	-139.864124
612.048755	-138.586350
612.173734	-137.392795
612.298765	-136.293090
612.423847	-135.299455
612.548980	-134.424071
612.674165	-133.675272
612.799400	-133.054948
612.924687	-132.557913
613.050025	-132.172287
613.175414	-131.880022
613.300854	-131.657839
613.426346	-131.479033
613.551889	-131.316314
613.677484	-131.145320
613.803130	-130.948169
613.928827	-130.715988
614.054576	-130.449149
614.180377	-130.155200
614.306229	-129.845700
614.432132	-129.533147
614.558087	-129.228938
614.684094	-128.942299
614.810153	-128.679743
614.936263	-128.444640
615.062425	-128.237097
615.188639	-128.054208
615.314904	-127.890621
615.441222	-127.739846
615.567591	-127.596202
615.694012	-127.457083
615.820486	-127.324656
615.947011	-127.206381
616.073588	-127.114112
616.200217	-127.061927
616.326898	-127.063535
616.453632	-127.130021
616.580417	-127.268400
616.707255	-127.480725
616.834144	-127.764075
616.961086	-128.111737
617.088081	-128.515203
617.215127	-128.967134
617.342226	-129.464989
617.469378	-130.013948
617.596581	-130.628490
617.723837	-131.332669
617.851146	-132.159453
617.978507	-133.150523
618.105920	-134.358559
618.233386	-135.854638
618.360905	-137.746187
618.488476	-140.218894
618.616100	-143.643568
618.743777	-148.829932
618.871506	-154.205209
618.999288	-148.812854
619.127123	-144.175179
619.255011	-141.172748
619.382951	-138.999121
619.510945	-137.264125
619.638991	-135.758276
619.767090	-134.367992
619.895243	-133.046139
620.023448	-131.792055
620.151706	-130.630522
620.280017	-129.593595
620.408382	-128.708897
620.536799	-127.994609
620.665270	-127.458596
620.793794	-127.098758
620.922371	-126.903140
621.051002	-126.849307
621.179686	-126.904110
621.308423	-127.025887
621.437213	-127.170888
621.566057	-127.304374
621.694954	-127.411806
621.823905	-127.502259
621.952909	-127.600077
622.081967	-127.728378
622.211079	-127.891849
622.340244	-128.065678
622.469462	-128.196137
622.598735	-128.218727
622.728061	-128.093384
622.857441	-127.835040
622.986874	-127.510070
623.116361	-127.203538
623.245903	-126.988063
623.375498	-126.910122
623.505147	-126.989324
623.634850	-127.221886
623.764606	-127.585046
623.894417	-128.043327
624.024282	-128.559173
624.154201	-129.108435
624.284174	-129.694883
624.414202	-130.355690
624.544283	-131.154284
624.674419	-132.165732
624.804609	-133.461538
624.934853	-135.088611
625.065151	-137.014571
625.195504	-138.980706
625.325911	-140.329064
625.456373	-140.471945
625.586889	-139.745603
625.717460	-138.768569
625.848085	-137.739045
625.978764	-136.586738
626.109498	-135.250215
626.240287	-133.795577
626.371131	-132.363280
626.502029	-131.076452
626.632982	-130.007205
626.763989	-129.185432
626.895052	-128.615415
627.026169	-128.287271
627.157341	-128.181789
627.288568	-128.270722
627.419850	-128.514703
627.551187	-128.860911
627.682579	-129.243974
627.814026	-129.593125
627.945528	-129.846262
628.077085	-129.963665
628.208697	-129.930846
628.340364	-129.750186
628.472087	-129.432616
628.603865	-128.999289
628.735698	-128.489073
628.867586	-127.959763
628.999530	-127.479677
629.131529	-127.115854
629.263584	-126.926037
629.395694	-126.956258
629.527859	-127.241756
629.660080	-127.807823
629.792357	-128.666886
629.924689	-129.807159
630.057077	-131.166541
630.189520	-132.592609
630.322019	-133.834810
630.454574	-134.677868
630.587184	-135.157096
630.719851	-135.522826
630.852573	-135.989115
630.985351	-136.566765
631.118185	-137.005659
631.251075	-136.919418
631.384021	-136.213837
631.517023	-135.235680
631.650081	-134.380043
631.783195	-133.866732
631.916365	-133.786629
632.049592	-134.175360
632.182874	-135.045758
632.316213	-136.381202
632.449608	-138.077555
632.583059	-139.818289
632.716567	-141.064614
632.850131	-141.609940
632.983751	-141.990901
633.117428	-142.905662
633.251161	-144.745744
633.384951	-146.503217
633.518797	-144.277650
633.652700	-140.129561
633.786660	-136.771767
633.920676	-134.309653
634.054749	-132.536314
634.188879	-131.289535
634.323065	-130.447980
634.457308	-129.908645
634.591608	-129.573690
634.725965	-129.351478
634.860379	-129.173028
634.994850	-129.012478
635.129377	-128.891915
635.263962	-128.860964
635.398604	-128.961895
635.533303	-129.192903
635.668058	-129.472400
635.802872	-129.621170
635.937742	-129.426008
636.072669	-128.808266
636.207654	-127.906846
636.342696	-126.947084
636.477796	-126.097034
636.612953	-125.439012
636.748167	-124.996477
636.883439	-124.760627
637.018768	-124.706508
637.154155	-124.802759
637.289599	-125.018572
637.425101	-125.329200
637.560660	-125.718824
637.696277	-126.177744
637.831952	-126.692724
637.967685	-127.232363
638.103475	-127.731791
638.239324	-128.089612
638.375230	-128.196875
638.511194	-127.997367
638.647215	-127.527318
638.783295	-126.888338
638.919433	-126.188559
639.055629	-125.507912
639.191883	-124.894935
639.328195	-124.376506
639.464565	-123.967082
639.600994	-123.673566
639.737481	-123.496951
639.874025	-123.432346
640.010629	-123.468163
640.147290	-123.585554
640.284010	-123.759479
640.420789	-123.962379
640.557625	-124.170786
640.694521	-124.373803
640.831474	-124.580206
640.968487	-124.820829
641.105558	-125.146353
641.242687	-125.623787
641.379876	-126.336824
641.517123	-127.395602
641.654429	-128.965680
641.791793	-131.349849
641.929216	-135.273458
642.066699	-143.439767
642.204240	-143.468801
642.341840	-134.770848
642.479499	-130.387711
642.617217	-127.531147
642.754994	-125.457890
642.892830	-123.867237
643.030726	-122.612140
643.168680	-121.617625
643.306694	-120.849169
643.444767	-120.296403
643.582899	-119.962977
643.721091	-119.859770
643.859342	-120.000059
643.997652	-120.395780
644.136022	-121.053309
644.274451	-121.966303
644.412940	-123.102582
644.551488	-124.384270
644.690096	-125.672849
644.828763	-126.798665
644.967490	-127.665883
645.106277	-128.342761
645.245124	-129.005926
645.384030	-129.802711
645.522997	-130.748468
645.662023	-131.653950
645.801109	-132.129543
645.940255	-131.879757
646.079460	-131.040676
646.218726	-129.941360
646.358052	-128.751868
646.497438	-127.473999
646.636884	-126.072514
646.776391	-124.567211
646.915957	-123.036311
647.055584	-121.570467
647.195271	-120.237547
647.335019	-119.074692
647.474826	-118.094684
647.614695	-117.294188
647.754623	-116.659910
647.894612	-116.172635
648.034662	-115.810328
648.174772	-115.551355
648.314943	-115.377903
648.455174	-115.278897
648.595466	-115.251445
648.735819	-115.299883
648.876233	-115.432550
649.016707	-115.657346
649.157242	-115.977113
649.297838	-116.385681
649.438495	-116.865137
649.579213	-117.384798
649.719992	-117.902978
649.860832	-118.372735
650.001733	-118.751351
650.142695	-119.011452
650.283718	-119.149572
650.424803	-119.187684
650.565949	-119.167041
650.707156	-119.137310
650.848424	-119.145176
650.989754	-119.225957
651.131145	-119.399289
651.272597	-119.668595
651.414111	-120.024231
651.555687	-120.449632
651.697324	-120.927692
651.839022	-121.440009
651.980782	-121.948819
652.122604	-122.357325
652.264488	-122.476278
652.406433	-122.088766
652.548441	-121.145561
652.690510	-119.840569
652.832640	-118.436794
652.974833	-117.113688
653.117088	-115.954030
653.259405	-114.981280
653.401784	-114.190036
653.544224	-113.562829
653.686727	-113.078621
653.829293	-112.717036
653.971920	-112.460518
654.114609	-112.295151
654.257361	-112.210324
654.400175	-112.197538
654.543052	-112.248829
654.685991	-112.355244
654.828992	-112.505761
654.972056	-112.686697
655.115183	-112.881793
655.258372	-113.073109
655.401623	-113.242493
655.544937	-113.373609
655.688314	-113.454071
655.831754	-113.476962
655.975256	-113.441442
656.118822	-113.352610
656.262450	-113.220950
656.406141	-113.061608
656.549894	-112.893533
656.693711	-112.738076
656.837591	-112.617111
656.981534	-112.551297
657.125540	-112.558694
657.269610	-112.654233
657.413742	-112.850497
657.557938	-113.159646
657.702196	-113.596055
657.846519	-114.179233
657.990904	-114.936690
658.135353	-115.906402
658.279866	-117.139113
658.424441	-118.700550
658.569081	-120.670174
658.713784	-123.114289
658.858550	-125.916779
659.003381	-128.129079
659.148274	-128.030597
659.293232	-126.315621
659.438253	-124.545864
659.583339	-123.114383
659.728488	-121.973081
659.873701	-121.028153
660.018978	-120.224389
660.164318	-119.550383
660.309723	-119.020759
660.455192	-118.655436
660.600725	-118.465453
660.746323	-118.445692
660.891984	-118.571194
661.037710	-118.794748
661.183500	-119.046611
661.329354	-119.240508
661.475272	-119.291100
661.621255	-119.140793
661.767303	-118.780262
661.913415	-118.246906
662.059591	-117.603251
662.205833	-116.912486
662.352138	-116.223487
662.498509	-115.565935
662.644944	-114.952332
662.791443	-114.384099
662.938008	-113.859086
663.084638	-113.378334
663.231332	-112.949935
663.378091	-112.588493
663.524915	-112.310925
663.671804	-112.130717
663.818759	-112.052541
663.965778	-112.068403
664.112863	-112.156126
664.260012	-112.280972
664.407227	-112.401959
664.554507	-112.483009
664.701853	-112.504925
664.849264	-112.471674
664.996740	-112.406884
665.144282	-112.343339
665.291889	-112.311756
665.439561	-112.332583
665.587300	-112.411213
665.735103	-112.536564
665.882973	-112.684155
666.030908	-112.825633
666.178909	-112.943745
666.326976	-113.045477
666.475109	-113.162904
666.623307	-113.338551
666.771571	-113.602509
666.919902	-113.949145
667.068298	-114.317386
667.216761	-114.586734
667.365289	-114.616602
667.513884	-114.331672
667.662545	-113.776222
667.811272	-113.070399
667.960065	-112.331521
668.108925	-111.640042
668.257851	-111.046839
668.406843	-110.589999
668.555902	-110.305287
668.705027	-110.229349
668.854219	-110.399482
669.003478	-110.852961
669.152803	-111.627138
669.302195	-112.758822
669.451653	-114.274019
669.601179	-116.133128
669.750771	-118.018957
669.900430	-118.952306
670.050156	-118.057214
670.199949	-116.108523
670.349808	-114.094811
670.499735	-112.343228
670.649729	-110.893221
670.799790	-109.719809
670.949918	-108.790460
671.100114	-108.074765
671.250377	-107.544590
671.400707	-107.173493
671.551104	-106.937155
671.701569	-106.814862
671.852101	-106.791334
672.002700	-106.858105
672.153368	-107.013933
672.304102	-107.263921
672.454905	-107.617427
672.605775	-108.085198
672.756713	-108.675943
672.907718	-109.392163
673.058791	-110.224444
673.209933	-111.143124
673.361142	-112.087312
673.512419	-112.955983
673.663764	-113.616421
673.815177	-113.948616
673.966658	-113.910194
674.118207	-113.558485
674.269825	-113.004771
674.421510	-112.357486
674.573264	-111.699131
674.725086	-111.089320
674.876977	-110.574216
675.028936	-110.193289
675.180963	-109.982291
675.333059	-109.973886
675.485224	-110.197295
675.637457	-110.677203
675.789758	-111.431736
675.942129	-112.468431
676.094568	-113.776549
676.247075	-115.314598
676.399652	-116.995712
676.552298	-118.686292
676.705012	-120.246467
676.857795	-121.612750
677.010648	-122.857654
677.163569	-124.188059
677.316560	-125.952962
677.469619	-128.714023
677.622748	-132.432289
677.775946	-129.907780
677.929214	-124.134999
678.082551	-119.912282
678.235957	-116.875656
678.389432	-114.659908
678.542977	-113.061874
678.696592	-111.955250
678.850276	-111.247320
679.004030	-110.858710
679.157853	-110.715657
679.311746	-110.751827
679.465709	-110.917645
679.619742	-111.190483
679.773844	-111.575871
679.928017	-112.095128
680.082259	-112.764160
680.236571	-113.572377
680.390954	-114.470703
680.545406	-115.380661
680.699929	-116.234315
680.854522	-117.024258
681.009185	-117.809936
681.163918	-118.661482
681.318722	-119.580926
681.473596	-120.442983
681.628540	-121.006705
681.783555	-121.069369
681.938641	-120.651051
682.093797	-119.947175
682.249023	-119.152226
682.404321	-118.388439
682.559689	-117.711881
682.715128	-117.116091
682.870637	-116.527602
683.026218	-115.826164
683.181869	-114.917811
683.337591	-113.816357
683.493385	-112.636487
683.649249	-111.510912
683.805185	-110.529461
683.961191	-109.730319
684.117269	-109.115183
684.273418	-108.667073
684.429639	-108.365487
684.585930	-108.196883
684.742294	-108.158810
684.898728	-108.257762
685.055234	-108.501984
685.211812	-108.891329
685.368461	-109.406281
685.525182	-109.997897
685.681975	-110.582951
685.838839	-111.054257
685.995775	-111.315204
686.152783	-111.324782
686.309863	-111.114251
686.467014	-110.760477
686.624238	-110.346695
686.781534	-109.939314
686.938902	-109.580768
687.096342	-109.289108
687.253854	-109.059804
687.411438	-108.870468
687.569095	-108.691385
687.726824	-108.501931
687.884626	-108.305913
688.042499	-108.136376
688.200446	-108.047148
688.358465	-108.098273
688.516556	-108.344793
688.674720	-108.831742
688.832957	-109.593217
688.991266	-110.651977
689.149649	-112.016272
689.308104	-113.671163
689.466632	-115.562423
689.625233	-117.574858
689.783906	-119.517828
689.942653	-121.138715
690.101473	-122.170793
690.260367	-122.449438
690.419333	-122.096820
690.578372	-121.497638
690.737485	-121.035351
690.896672	-120.949762
691.055931	-121.356881
691.215264	-122.285003
691.374671	-123.651849
691.534151	-125.157062
691.693704	-126.225617
691.853332	-126.446353
692.013033	-126.046088
692.172807	-125.394481
692.332656	-124.620502
692.492578	-123.814059
692.652575	-123.202465
692.812645	-123.109372
692.972789	-123.934065
693.133007	-126.397485
693.293300	-133.107653
693.453666	-136.313752
693.614107	-124.740754
693.774622	-119.530729
693.935211	-116.260362
694.095875	-114.031206
694.256613	-112.502261
694.417426	-111.507785
694.578313	-110.957864
694.739274	-110.803426
694.900311	-111.022728
695.061421	-111.618064
695.222607	-112.620944
695.383868	-114.110599
695.545203	-116.264446
695.706613	-119.510132
695.868098	-125.164034
696.029658	-136.337765
696.191293	-125.008929
696.353003	-119.462119
696.514789	-116.360076
696.676649	-114.438656
696.838585	-113.276256
697.000596	-112.666622
697.162682	-112.455179
697.324844	-112.469861
697.487081	-112.503910
697.649394	-112.379040
697.811782	-112.059838
697.974246	-111.671181
698.136786	-111.385776
698.299401	-111.326345
698.462092	-111.542532
698.624859	-112.020954
698.787702	-112.697600
698.950621	-113.476411
699.113616	-114.270426
699.276686	-115.058482
699.439833	-115.910082
699.603056	-116.951628
699.766355	-118.310245
699.929731	-120.070087
700.093183	-122.223523
700.256711	-124.568731
700.420315	-126.594553
700.583996	-127.712628
700.747754	-127.754725
700.911588	-126.771033
701.075499	-124.938825
701.239486	-122.747153
701.403550	-120.630936
701.567691	-118.757361
701.731909	-117.123162
701.896203	-115.670381
702.060575	-114.353604
702.225024	-113.167597
702.389549	-112.141856
702.554152	-111.316754
702.718832	-110.720043
702.883589	-110.352724
703.048424	-110.184757
703.213335	-110.161972
703.378324	-110.228832
703.543391	-110.363587
703.708535	-110.603819
703.873757	-111.041152
704.039056	-111.792313
704.204433	-112.966860
704.369887	-114.621461
704.535420	-116.615513
704.701030	-118.252423
704.866718	-118.486704
705.032484	-117.622408
705.198328	-116.766285
705.364250	-116.423560
705.530250	-116.684215
705.696328	-117.510471
705.862485	-118.810057
706.028720	-120.423605
706.195033	-122.109832
706.361424	-123.632281
706.527894	-124.952158
706.694442	-126.214157
706.861069	-127.268582
707.027775	-127.077655
707.194559	-125.067298
707.361422	-122.494639
707.528363	-120.305047
707.695384	-118.697176
707.862483	-117.603504
708.029661	-116.860998
708.196918	-116.263102
708.364254	-115.648260
708.531670	-115.016279
708.699164	-114.534546
708.866738	-114.430801
709.034391	-114.920591
709.202123	-116.213384
709.369935	-118.509778
709.537826	-121.502441
709.705796	-122.122572
709.873847	-119.419757
710.041976	-117.021030
710.210186	-115.687101
710.378475	-115.245820
710.546844	-115.416522
710.715292	-115.763728
710.883821	-115.701121
711.052429	-114.956278
711.221118	-113.857929
711.389887	-112.827479
711.558735	-112.050190
711.727664	-111.542429
711.896673	-111.259276
712.065763	-111.148827
712.234932	-111.163793
712.404183	-111.242565
712.573513	-111.281513
712.742924	-111.142060
712.912416	-110.728469
713.081988	-110.075788
713.251641	-109.328302
713.421375	-108.638937
713.591190	-108.107958
713.761085	-107.780355
713.931061	-107.662910
714.101119	-107.737232
714.271257	-107.963641
714.441476	-108.280115
714.611777	-108.607016
714.782159	-108.871415
714.952622	-109.049656
715.123166	-109.195606
715.293792	-109.425353
715.464499	-109.878576
715.635288	-110.696666
715.806158	-112.033505
715.977110	-114.104583
716.148143	-117.322231
716.319259	-122.827159
716.490456	-136.879895
716.661735	-126.788618
716.833096	-121.189623
717.004538	-118.841128
717.176063	-117.997579
717.347670	-118.164252
717.519359	-119.138839
717.691130	-120.804399
717.862984	-123.081228
718.034920	-126.119455
718.206938	-131.366238
718.379039	-144.380668
718.551222	-126.800174
718.723488	-119.794469
718.895836	-115.233243
719.068267	-111.893592
719.240781	-109.361108
719.413377	-107.439014
719.586057	-106.016303
719.758819	-105.023848
719.931664	-104.415309
720.104593	-104.156470
720.277604	-104.217392
720.450699	-104.564882
720.623876	-105.154737
720.797137	-105.925742
720.970482	-106.801171
721.143910	-107.704669
721.317421	-108.587611
721.491016	-109.446108
721.664694	-110.304112
721.838456	-111.170906
722.012302	-112.004401
722.186231	-112.705451
722.360244	-113.151414
722.534342	-113.248231
722.708523	-112.968072
