# 2022-03-22_01.49.47
# shape = sech2
# FWHM_ps = 0.1
# carrier_nm = 1542
# frep_MHz = 12126
# pow_mW = 8000
# GDD = 0.0
# propa_len = 0.15311111111111111
# untap_len = 0.01
# taper_len = 0.09311111111111112
# waist_len = 0.02
# uptap_len = 0.02
# untap_scale = 1.0
# waist_scale = 0.33684210526315794
# workingDir = NL_20110305_12 (Spirou)
# axis = slow
# window_ps = 10.0
# steps = 200
# points = 21700
# 
# wavelength [nm]	 power spectral density [dB]
600.043425	-108.578658
600.163550	-108.574571
600.283723	-108.496949
600.403943	-108.351623
600.524212	-108.150663
600.644529	-107.908593
600.764895	-107.640289
600.885308	-107.359344
601.005770	-107.077122
601.126280	-106.802431
601.246839	-106.541646
601.367446	-106.299031
601.488101	-106.077137
601.608804	-105.877156
601.729557	-105.699204
601.850357	-105.542492
601.971206	-105.405460
602.092104	-105.285863
602.213050	-105.180867
602.334045	-105.087190
602.455089	-105.001266
602.576181	-104.919470
602.697322	-104.838380
602.818511	-104.755020
602.939749	-104.667073
603.061036	-104.573010
603.182372	-104.472142
603.303757	-104.364558
603.425191	-104.251003
603.546673	-104.132742
603.668204	-104.011433
603.789785	-103.889024
603.911414	-103.767679
604.033092	-103.649699
604.154820	-103.537423
604.276596	-103.433092
604.398422	-103.338675
604.520297	-103.255699
604.642220	-103.185083
604.764193	-103.127031
604.886216	-103.081039
605.008287	-103.046000
605.130408	-103.020402
605.252578	-103.002579
605.374798	-102.990932
605.497066	-102.984102
605.619385	-102.981059
605.741752	-102.981101
605.864169	-102.983821
605.986636	-102.989090
606.109152	-102.997090
606.231718	-103.008421
606.354333	-103.024259
606.476998	-103.046464
606.599712	-103.077591
606.722476	-103.120768
606.845290	-103.179419
606.968154	-103.256923
607.091067	-103.356268
607.214030	-103.479760
607.337043	-103.628867
607.460106	-103.804207
607.583219	-104.005676
607.706381	-104.232623
607.829594	-104.484028
607.952856	-104.758622
608.076169	-105.054894
608.199531	-105.371007
608.322944	-105.704654
608.446407	-106.052955
608.569920	-106.412503
608.693483	-106.779606
608.817096	-107.150723
608.940759	-107.522985
609.064473	-107.894657
609.188237	-108.265331
609.312051	-108.635703
609.435916	-109.006996
609.559831	-109.380135
609.683796	-109.754955
609.807812	-110.129710
609.931878	-110.501039
610.055995	-110.864460
610.180162	-111.215211
610.304380	-111.549099
610.428648	-111.862982
610.552967	-112.154661
610.677337	-112.422127
610.801757	-112.662461
610.926228	-112.871017
611.050750	-113.041359
611.175323	-113.166174
611.299946	-113.239046
611.424620	-113.256571
611.549345	-113.219808
611.674121	-113.134409
611.798948	-113.009379
611.923826	-112.855076
612.048755	-112.681172
612.173734	-112.495274
612.298765	-112.302453
612.423847	-112.105706
612.548980	-111.906978
612.674165	-111.708408
612.799400	-111.513340
612.924687	-111.326758
613.050025	-111.155024
613.175414	-111.005014
613.300854	-110.882961
613.426346	-110.793361
613.551889	-110.738168
613.677484	-110.716434
613.803130	-110.724414
613.928827	-110.756101
614.054576	-110.804118
614.180377	-110.860806
614.306229	-110.919336
614.432132	-110.974579
614.558087	-111.023637
614.684094	-111.065891
614.810153	-111.102718
614.936263	-111.136963
615.062425	-111.172287
615.188639	-111.212577
615.314904	-111.261500
615.441222	-111.322305
615.567591	-111.397846
615.694012	-111.490857
615.820486	-111.604298
615.947011	-111.741554
616.073588	-111.906255
616.200217	-112.101528
616.326898	-112.328648
616.453632	-112.585233
616.580417	-112.863353
616.707255	-113.148275
616.834144	-113.418894
616.961086	-113.650809
617.088081	-113.822228
617.215127	-113.920760
617.342226	-113.947729
617.469378	-113.917233
617.596581	-113.850508
617.723837	-113.769052
617.851146	-113.689596
617.978507	-113.622410
618.105920	-113.572455
618.233386	-113.542111
618.360905	-113.533924
618.488476	-113.552232
618.616100	-113.603109
618.743777	-113.692636
618.871506	-113.824324
618.999288	-113.996315
619.127123	-114.199323
619.255011	-114.416121
619.382951	-114.623321
619.510945	-114.795797
619.638991	-114.912832
619.767090	-114.963540
619.895243	-114.948602
620.023448	-114.877553
620.151706	-114.763564
620.280017	-114.619052
620.408382	-114.454249
620.536799	-114.278360
620.665270	-114.101777
620.793794	-113.937712
620.922371	-113.802068
621.051002	-113.711707
621.179686	-113.681909
621.308423	-113.723775
621.437213	-113.842102
621.566057	-114.034082
621.694954	-114.288613
621.823905	-114.586598
621.952909	-114.902886
622.081967	-115.210171
622.211079	-115.484399
622.340244	-115.710364
622.469462	-115.884538
622.598735	-116.013594
622.728061	-116.109451
622.857441	-116.183424
622.986874	-116.242123
623.116361	-116.286435
623.245903	-116.313328
623.375498	-116.319592
623.505147	-116.305605
623.634850	-116.277529
623.764606	-116.246500
623.894417	-116.225416
624.024282	-116.224848
624.154201	-116.249799
624.284174	-116.298674
624.414202	-116.364833
624.544283	-116.440167
624.674419	-116.519350
624.804609	-116.602854
624.934853	-116.696984
625.065151	-116.810714
625.195504	-116.951155
625.325911	-117.119944
625.456373	-117.312492
625.586889	-117.520936
625.717460	-117.739789
625.848085	-117.971592
625.978764	-118.228865
626.109498	-118.530107
626.240287	-118.890852
626.371131	-119.312213
626.502029	-119.769801
626.632982	-120.207781
626.763989	-120.546135
626.895052	-120.708270
627.026169	-120.659006
627.157341	-120.421028
627.288568	-120.053884
627.419850	-119.620264
627.551187	-119.168256
627.682579	-118.732182
627.814026	-118.339926
627.945528	-118.017208
628.077085	-117.787040
628.208697	-117.666390
628.340364	-117.662936
628.472087	-117.773754
628.603865	-117.986604
628.735698	-118.283672
628.867586	-118.645635
628.999530	-119.052327
629.131529	-119.474770
629.263584	-119.856476
629.395694	-120.093996
629.527859	-120.048119
629.660080	-119.618027
629.792357	-118.827912
629.924689	-117.814112
630.057077	-116.730134
630.189520	-115.682523
630.322019	-114.725616
630.454574	-113.880284
630.587184	-113.152006
630.719851	-112.541812
630.852573	-112.050911
630.985351	-111.681036
631.118185	-111.432192
631.251075	-111.299371
631.384021	-111.269579
631.517023	-111.320079
631.650081	-111.419156
631.783195	-111.530683
631.916365	-111.621977
632.049592	-111.671843
632.182874	-111.673887
632.316213	-111.632726
632.449608	-111.556278
632.583059	-111.450095
632.716567	-111.316964
632.850131	-111.160971
632.983751	-110.991851
633.117428	-110.825356
633.251161	-110.679074
633.384951	-110.566353
633.518797	-110.491781
633.652700	-110.450728
633.786660	-110.433374
633.920676	-110.431673
634.054749	-110.445862
634.188879	-110.486873
634.323065	-110.573077
634.457308	-110.723235
634.591608	-110.949126
634.725965	-111.250363
634.860379	-111.612420
634.994850	-112.007197
635.129377	-112.394739
635.263962	-112.724316
635.398604	-112.934966
635.533303	-112.960865
635.668058	-112.750315
635.802872	-112.294648
635.937742	-111.641811
636.072669	-110.876810
636.207654	-110.086382
636.342696	-109.335336
636.477796	-108.661637
636.612953	-108.082307
636.748167	-107.601946
636.883439	-107.219808
637.018768	-106.934002
637.154155	-106.742690
637.289599	-106.642927
637.425101	-106.628258
637.560660	-106.686504
637.696277	-106.799202
637.831952	-106.943801
637.967685	-107.098490
638.103475	-107.247757
638.239324	-107.385563
638.375230	-107.513719
638.511194	-107.636441
638.647215	-107.754767
638.783295	-107.864519
638.919433	-107.958979
639.055629	-108.034116
639.191883	-108.092473
639.328195	-108.142411
639.464565	-108.193351
639.600994	-108.250942
639.737481	-108.315968
639.874025	-108.388396
640.010629	-108.474378
640.147290	-108.591434
640.284010	-108.767947
640.420789	-109.036600
640.557625	-109.424091
640.694521	-109.939101
640.831474	-110.557876
640.968487	-111.206148
641.105558	-111.745061
641.242687	-111.992150
641.379876	-111.810124
641.517123	-111.205365
641.654429	-110.313164
641.791793	-109.295610
641.929216	-108.274666
642.066699	-107.324673
642.204240	-106.485980
642.341840	-105.777093
642.479499	-105.201735
642.617217	-104.752986
642.754994	-104.416690
642.892830	-104.175142
643.030726	-104.011050
643.168680	-103.910978
643.306694	-103.867040
643.444767	-103.875979
643.582899	-103.936228
643.721091	-104.044720
643.859342	-104.195238
643.997652	-104.379364
644.136022	-104.589227
644.274451	-104.819670
644.412940	-105.067068
644.551488	-105.323642
644.690096	-105.569302
644.828763	-105.766503
644.967490	-105.865057
645.106277	-105.820031
645.245124	-105.614218
645.384030	-105.266869
645.522997	-104.821324
645.662023	-104.324759
645.801109	-103.816062
645.940255	-103.324964
646.079460	-102.875899
646.218726	-102.490316
646.358052	-102.185368
646.497438	-101.970017
646.636884	-101.840826
646.776391	-101.779637
646.915957	-101.755003
647.055584	-101.728568
647.195271	-101.665472
647.335019	-101.544237
647.474826	-101.360131
647.614695	-101.120363
647.754623	-100.836316
647.894612	-100.519227
648.034662	-100.181032
648.174772	-99.837165
648.314943	-99.507142
648.455174	-99.211571
648.595466	-98.967364
648.735819	-98.784018
648.876233	-98.662726
649.016707	-98.598498
649.157242	-98.584206
649.297838	-98.614667
649.438495	-98.688708
649.579213	-98.808159
649.719992	-98.974391
649.860832	-99.184395
650.001733	-99.428644
650.142695	-99.691867
650.283718	-99.956267
650.424803	-100.204844
650.565949	-100.422063
650.707156	-100.591230
650.848424	-100.691812
650.989754	-100.702061
651.131145	-100.609039
651.272597	-100.420252
651.414111	-100.166782
651.555687	-99.894353
651.697324	-99.649188
651.839022	-99.467636
651.980782	-99.372840
652.122604	-99.376417
652.264488	-99.481678
652.406433	-99.685751
652.548441	-99.978835
652.690510	-100.340029
652.832640	-100.730991
652.974833	-101.091870
653.117088	-101.347809
653.259405	-101.432807
653.401784	-101.321743
653.544224	-101.043661
653.686727	-100.662894
653.829293	-100.247735
653.971920	-99.851107
654.114609	-99.507392
654.257361	-99.237208
654.400175	-99.052551
654.543052	-98.959269
654.685991	-98.957149
654.828992	-99.039010
654.972056	-99.190445
655.115183	-99.391494
655.258372	-99.620589
655.401623	-99.859531
655.544937	-100.096907
655.688314	-100.327888
655.831754	-100.550689
655.975256	-100.762560
656.118822	-100.958517
656.262450	-101.133386
656.406141	-101.284629
656.549894	-101.412176
656.693711	-101.514057
656.837591	-101.580897
656.981534	-101.594877
657.125540	-101.537115
657.269610	-101.400780
657.413742	-101.200457
657.557938	-100.969551
657.702196	-100.747655
657.846519	-100.567197
657.990904	-100.446408
658.135353	-100.389591
658.279866	-100.392113
658.424441	-100.446970
658.569081	-100.549641
658.713784	-100.698781
658.858550	-100.892202
659.003381	-101.119945
659.148274	-101.358023
659.293232	-101.567390
659.438253	-101.702008
659.583339	-101.725445
659.728488	-101.626954
659.873701	-101.424546
660.018978	-101.152941
660.164318	-100.847272
660.309723	-100.533384
660.455192	-100.226907
660.600725	-99.936971
660.746323	-99.670205
660.891984	-99.432749
661.037710	-99.230236
661.183500	-99.066937
661.329354	-98.945360
661.475272	-98.866543
661.621255	-98.830414
661.767303	-98.835349
661.913415	-98.876335
662.059591	-98.942143
662.205833	-99.012998
662.352138	-99.060734
662.498509	-99.053267
662.644944	-98.963217
662.791443	-98.777078
662.938008	-98.499879
663.084638	-98.152809
663.231332	-97.766425
663.378091	-97.373781
663.524915	-97.005569
663.671804	-96.687041
663.818759	-96.435686
663.965778	-96.259349
664.112863	-96.155288
664.260012	-96.111051
664.407227	-96.107925
664.554507	-96.126700
664.701853	-96.153669
664.849264	-96.183575
664.996740	-96.217535
665.144282	-96.257349
665.291889	-96.300644
665.439561	-96.340910
665.587300	-96.373216
665.735103	-96.401891
665.882973	-96.444002
666.030908	-96.525058
666.178909	-96.668957
666.326976	-96.887162
666.475109	-97.171331
666.623307	-97.491786
666.771571	-97.803377
666.919902	-98.058467
667.068298	-98.221722
667.216761	-98.277886
667.365289	-98.228761
667.513884	-98.086010
667.662545	-97.868072
667.811272	-97.601116
667.960065	-97.317781
668.108925	-97.050359
668.257851	-96.821444
668.406843	-96.637276
668.555902	-96.486928
668.705027	-96.347926
668.854219	-96.196558
669.003478	-96.018487
669.152803	-95.814107
669.302195	-95.596162
669.451653	-95.382565
669.601179	-95.189840
669.750771	-95.030420
669.900430	-94.913335
670.050156	-94.846101
670.199949	-94.835860
670.349808	-94.889019
670.499735	-95.009830
670.649729	-95.198834
670.799790	-95.451797
670.949918	-95.759285
671.100114	-96.106572
671.250377	-96.473699
671.400707	-96.836388
671.551104	-97.168934
671.701569	-97.449677
671.852101	-97.667367
672.002700	-97.823756
672.153368	-97.928655
672.304102	-97.989197
672.454905	-98.000263
672.605775	-97.943700
672.756713	-97.799373
672.907718	-97.562185
673.058791	-97.251784
673.209933	-96.906484
673.361142	-96.566943
673.512419	-96.261992
673.663764	-96.003400
673.815177	-95.788973
673.966658	-95.609953
674.118207	-95.458076
674.269825	-95.328624
674.421510	-95.218197
674.573264	-95.119447
674.725086	-95.017218
674.876977	-94.890329
675.028936	-94.719882
675.180963	-94.499756
675.333059	-94.241711
675.485224	-93.970781
675.637457	-93.714354
675.789758	-93.492233
675.942129	-93.312307
676.094568	-93.172264
676.247075	-93.065012
676.399652	-92.984565
676.552298	-92.929409
676.705012	-92.901863
676.857795	-92.904535
677.010648	-92.936669
677.163569	-92.993013
677.316560	-93.066219
677.469619	-93.151493
677.622748	-93.250523
677.775946	-93.371919
677.929214	-93.527693
678.082551	-93.727837
678.235957	-93.975725
678.389432	-94.265846
678.542977	-94.583503
678.696592	-94.904759
678.850276	-95.195205
679.004030	-95.408677
679.157853	-95.491484
679.311746	-95.398696
679.465709	-95.118421
679.619742	-94.684748
679.773844	-94.164903
679.928017	-93.631597
680.082259	-93.141467
680.236571	-92.727470
680.390954	-92.400777
680.545406	-92.156132
680.699929	-91.977541
680.854522	-91.843485
681.009185	-91.731607
681.163918	-91.622629
681.318722	-91.503062
681.473596	-91.366263
681.628540	-91.211882
681.783555	-91.044275
681.938641	-90.870755
682.093797	-90.700175
682.249023	-90.541814
682.404321	-90.404209
682.559689	-90.293724
682.715128	-90.212992
682.870637	-90.159806
683.026218	-90.127256
683.181869	-90.105645
683.337591	-90.085985
683.493385	-90.063653
683.649249	-90.040303
683.805185	-90.022797
683.961191	-90.019571
684.117269	-90.036556
684.273418	-90.074726
684.429639	-90.130271
684.585930	-90.197084
684.742294	-90.270022
684.898728	-90.346969
685.055234	-90.428498
685.211812	-90.515603
685.368461	-90.607295
685.525182	-90.699945
685.681975	-90.789025
685.838839	-90.872201
685.995775	-90.951553
686.152783	-91.032962
686.309863	-91.122447
686.467014	-91.221113
686.624238	-91.321258
686.781534	-91.405966
686.938902	-91.453583
687.096342	-91.446375
687.253854	-91.379668
687.411438	-91.266069
687.569095	-91.131943
687.726824	-91.008513
687.884626	-90.922484
688.042499	-90.889585
688.200446	-90.911670
688.358465	-90.976660
688.516556	-91.060728
688.674720	-91.132532
688.832957	-91.159175
688.991266	-91.112988
689.149649	-90.977536
689.308104	-90.751508
689.466632	-90.449587
689.625233	-90.099943
689.783906	-89.738836
689.942653	-89.403869
690.101473	-89.128045
690.260367	-88.935960
690.419333	-88.842341
690.578372	-88.852154
690.737485	-88.961454
690.896672	-89.158264
691.055931	-89.422945
691.215264	-89.728218
691.374671	-90.040043
691.534151	-90.321475
691.693704	-90.541326
691.853332	-90.685687
692.013033	-90.765491
692.172807	-90.813677
692.332656	-90.872875
692.492578	-90.981176
692.652575	-91.162487
692.812645	-91.423079
692.972789	-91.752859
693.133007	-92.129223
693.293300	-92.521075
693.453666	-92.890758
693.614107	-93.193449
693.774622	-93.378795
693.935211	-93.402995
694.095875	-93.251521
694.256613	-92.954724
694.417426	-92.577636
694.578313	-92.190874
694.739274	-91.845317
694.900311	-91.562391
695.061421	-91.337452
695.222607	-91.150130
695.383868	-90.976602
695.545203	-90.799167
695.706613	-90.609412
695.868098	-90.405286
696.029658	-90.186813
696.191293	-89.955144
696.353003	-89.715427
696.514789	-89.479600
696.676649	-89.265290
696.838585	-89.090525
697.000596	-88.967412
697.162682	-88.898569
697.324844	-88.877899
697.487081	-88.894912
697.649394	-88.939899
697.811782	-89.006706
697.974246	-89.091623
698.136786	-89.189943
698.299401	-89.294070
698.462092	-89.396223
698.624859	-89.495010
698.787702	-89.601270
698.950621	-89.737884
699.113616	-89.932376
699.276686	-90.205898
699.439833	-90.562966
699.603056	-90.984605
699.766355	-91.427012
699.929731	-91.829016
700.093183	-92.130777
700.256711	-92.298142
700.420315	-92.337161
700.583996	-92.287865
700.747754	-92.204324
700.911588	-92.136043
701.075499	-92.117577
701.239486	-92.164310
701.403550	-92.271132
701.567691	-92.413444
701.731909	-92.551921
701.896203	-92.641680
702.060575	-92.642782
702.225024	-92.526302
702.389549	-92.274847
702.554152	-91.883890
702.718832	-91.368391
702.883589	-90.767791
703.048424	-90.139322
703.213335	-89.540974
703.378324	-89.014956
703.543391	-88.579265
703.708535	-88.227917
703.873757	-87.937553
704.039056	-87.678083
704.204433	-87.424209
704.369887	-87.163119
704.535420	-86.895161
704.701030	-86.629071
704.866718	-86.376744
705.032484	-86.151148
705.198328	-85.966714
705.364250	-85.839318
705.530250	-85.783854
705.696328	-85.809764
705.862485	-85.916856
706.028720	-86.094007
706.195033	-86.322501
706.361424	-86.583615
706.527894	-86.866959
706.694442	-87.174007
706.861069	-87.513799
707.027775	-87.893809
707.194559	-88.313035
707.361422	-88.763082
707.528363	-89.237226
707.695384	-89.740007
707.862483	-90.286126
708.029661	-90.882207
708.196918	-91.495668
708.364254	-92.027640
708.531670	-92.327616
708.699164	-92.284387
708.866738	-91.926280
709.034391	-91.397785
709.202123	-90.849080
709.369935	-90.371225
709.537826	-89.995927
709.705796	-89.715684
709.873847	-89.500273
710.041976	-89.307941
710.210186	-89.096485
710.378475	-88.837276
710.546844	-88.526880
710.715292	-88.186792
710.883821	-87.849772
711.052429	-87.542853
711.221118	-87.278128
711.389887	-87.054842
711.558735	-86.869112
711.727664	-86.723640
711.896673	-86.630652
712.065763	-86.606585
712.234932	-86.663351
712.404183	-86.802659
712.573513	-87.017078
712.742924	-87.297258
712.912416	-87.640961
713.081988	-88.057910
713.251641	-88.567577
713.421375	-89.192859
713.591190	-89.956085
713.761085	-90.882006
713.931061	-92.007499
714.101119	-93.393126
714.271257	-95.129520
714.441476	-97.328525
714.611777	-100.053866
714.782159	-102.965022
714.952622	-104.491173
715.123166	-103.621220
715.293792	-102.046083
715.464499	-100.775593
715.635288	-99.910322
715.806158	-99.408230
715.977110	-99.286858
716.148143	-99.619708
716.319259	-100.469348
716.490456	-101.735612
716.661735	-102.776322
716.833096	-102.387741
717.004538	-100.593153
717.176063	-98.507774
717.347670	-96.643843
717.519359	-95.047422
717.691130	-93.674143
717.862984	-92.502858
718.034920	-91.533465
718.206938	-90.756657
718.379039	-90.133895
718.551222	-89.599686
718.723488	-89.084824
718.895836	-88.545284
719.068267	-87.970645
719.240781	-87.363155
719.413377	-86.712139
719.586057	-85.994191
719.758819	-85.200704
719.931664	-84.362724
720.104593	-83.545010
720.277604	-82.817130
720.450699	-82.228954
720.623876	-81.802889
720.797137	-81.538233
720.970482	-81.420025
721.143910	-81.427382
721.317421	-81.538087
721.491016	-81.727730
721.664694	-81.964853
721.838456	-82.207410
722.012302	-82.407563
722.186231	-82.526581
722.360244	-82.550221
722.534342	-82.490167
722.708523	-82.370236
722.882788	-82.211862
723.057137	-82.030723
723.231570	-81.841843
723.406088	-81.662646
723.580689	-81.507882
723.755375	-81.380140
723.930146	-81.264567
724.105000	-81.134114
724.279940	-80.964235
724.454963	-80.747476
724.630072	-80.496892
724.805265	-80.236958
724.980543	-79.991540
725.155905	-79.777838
725.331353	-79.606988
725.506885	-79.486568
725.682503	-79.420906
725.858205	-79.409165
726.033993	-79.444570
