# 2022-03-22_12.16.43
# shape = sech2
# FWHM_ps = 0.11
# carrier_nm = 1542
# frep_MHz = 12126
# pow_mW = 8000
# GDD = 0.0
# propa_len = 0.14622222222222223
# untap_len = 0.01
# taper_len = 0.08622222222222223
# waist_len = 0.02
# uptap_len = 0.02
# untap_scale = 1.0
# waist_scale = 0.2894736842105263
# workingDir = NL_20110305_12 (Spirou)
# axis = slow
# window_ps = 10.0
# steps = 200
# points = 21700
# 
# wavelength [nm]	 power spectral density [dB]
600.043425	-96.402069
600.163550	-96.848996
600.283723	-97.314050
600.403943	-97.792923
600.524212	-98.283937
600.644529	-98.786452
600.764895	-99.302241
600.885308	-99.833711
601.005770	-100.384022
601.126280	-100.955823
601.246839	-101.546607
601.367446	-102.146297
601.488101	-102.729673
601.608804	-103.251025
601.729557	-103.642254
601.850357	-103.825108
601.971206	-103.740173
602.092104	-103.378883
602.213050	-102.789163
602.334045	-102.050488
602.455089	-101.240437
602.576181	-100.416091
602.697322	-99.613474
602.818511	-98.851301
602.939749	-98.136159
603.061036	-97.469342
603.182372	-96.847158
603.303757	-96.265031
603.425191	-95.717626
603.546673	-95.200488
603.668204	-94.709406
603.789785	-94.241450
603.911414	-93.794162
604.033092	-93.365834
604.154820	-92.955132
604.276596	-92.561269
604.398422	-92.183352
604.520297	-91.820798
604.642220	-91.472879
604.764193	-91.138801
604.886216	-90.817476
605.008287	-90.507869
605.130408	-90.208613
605.252578	-89.918203
605.374798	-89.635600
605.497066	-89.359814
605.619385	-89.090058
605.741752	-88.826076
605.864169	-88.567683
605.986636	-88.314828
606.109152	-88.067618
606.231718	-87.826262
606.354333	-87.591042
606.476998	-87.362387
606.599712	-87.140726
606.722476	-86.926439
606.845290	-86.719644
606.968154	-86.520463
607.091067	-86.328485
607.214030	-86.142991
607.337043	-85.963099
607.460106	-85.787643
607.583219	-85.615172
607.706381	-85.444314
607.829594	-85.273582
607.952856	-85.101685
608.076169	-84.927784
608.199531	-84.751306
608.322944	-84.572297
608.446407	-84.391190
608.569920	-84.208885
608.693483	-84.026517
608.817096	-83.845357
608.940759	-83.666593
609.064473	-83.491243
609.188237	-83.320050
609.312051	-83.153339
609.435916	-82.991069
609.559831	-82.832903
609.683796	-82.678193
609.807812	-82.526335
609.931878	-82.376559
610.055995	-82.228238
610.180162	-82.080926
610.304380	-81.934402
610.428648	-81.788788
610.552967	-81.644520
610.677337	-81.502285
610.801757	-81.362907
610.926228	-81.227333
611.050750	-81.096283
611.175323	-80.970436
611.299946	-80.850171
611.424620	-80.735738
611.549345	-80.627275
611.674121	-80.524628
611.798948	-80.427734
611.923826	-80.336333
612.048755	-80.250120
612.173734	-80.168849
612.298765	-80.092200
612.423847	-80.019925
612.548980	-79.951853
612.674165	-79.887873
612.799400	-79.827904
612.924687	-79.771886
613.050025	-79.719678
613.175414	-79.671139
613.300854	-79.626111
613.426346	-79.584502
613.551889	-79.546331
613.677484	-79.511720
613.803130	-79.481015
613.928827	-79.454486
614.054576	-79.432533
614.180377	-79.415632
614.306229	-79.404258
614.432132	-79.398933
614.558087	-79.400047
614.684094	-79.407924
614.810153	-79.422660
614.936263	-79.444230
615.062425	-79.472317
615.188639	-79.506510
615.314904	-79.546368
615.441222	-79.591404
615.567591	-79.641110
615.694012	-79.695091
615.820486	-79.752958
615.947011	-79.814448
616.073588	-79.879514
616.200217	-79.948177
616.326898	-80.020541
616.453632	-80.096735
616.580417	-80.176893
616.707255	-80.261127
616.834144	-80.349395
616.961086	-80.441462
617.088081	-80.536948
617.215127	-80.635320
617.342226	-80.735833
617.469378	-80.837733
617.596581	-80.940240
617.723837	-81.042584
617.851146	-81.144109
617.978507	-81.244250
618.105920	-81.342433
618.233386	-81.438178
618.360905	-81.531028
618.488476	-81.620556
618.616100	-81.706224
618.743777	-81.787666
618.871506	-81.864299
618.999288	-81.935520
619.127123	-82.000547
619.255011	-82.058727
619.382951	-82.109314
619.510945	-82.151644
619.638991	-82.185061
619.767090	-82.209109
619.895243	-82.223260
620.023448	-82.227215
620.151706	-82.220880
620.280017	-82.204330
620.408382	-82.177720
620.536799	-82.141178
620.665270	-82.094520
620.793794	-82.037299
620.922371	-81.968862
621.051002	-81.888291
621.179686	-81.794765
621.308423	-81.687238
621.437213	-81.564858
621.566057	-81.426962
621.694954	-81.273514
621.823905	-81.104979
621.952909	-80.922772
622.081967	-80.728901
622.211079	-80.525951
622.340244	-80.316842
622.469462	-80.104659
622.598735	-79.892448
622.728061	-79.682913
622.857441	-79.478346
622.986874	-79.280236
623.116361	-79.089412
623.245903	-78.905921
623.375498	-78.729223
623.505147	-78.558150
623.634850	-78.391242
623.764606	-78.226817
623.894417	-78.063133
624.024282	-77.898774
624.154201	-77.732625
624.284174	-77.564278
624.414202	-77.393922
624.544283	-77.222504
624.674419	-77.051425
624.804609	-76.882682
624.934853	-76.718418
625.065151	-76.561048
625.195504	-76.412892
625.325911	-76.276128
625.456373	-76.152577
625.586889	-76.043519
625.717460	-75.949700
625.848085	-75.871291
625.978764	-75.807896
626.109498	-75.758690
626.240287	-75.722467
626.371131	-75.697767
626.502029	-75.682915
626.632982	-75.676172
626.763989	-75.675840
626.895052	-75.680311
627.026169	-75.688298
627.157341	-75.698752
627.288568	-75.711033
627.419850	-75.724845
627.551187	-75.740164
627.682579	-75.757214
627.814026	-75.776258
627.945528	-75.797667
628.077085	-75.821841
628.208697	-75.849074
628.340364	-75.879664
628.472087	-75.913719
628.603865	-75.951278
628.735698	-75.992131
628.867586	-76.035836
628.999530	-76.081690
629.131529	-76.128724
629.263584	-76.175754
629.395694	-76.221321
629.527859	-76.263886
629.660080	-76.301758
629.792357	-76.333295
629.924689	-76.356916
630.057077	-76.371167
630.189520	-76.374888
630.322019	-76.367215
630.454574	-76.347655
630.587184	-76.316113
630.719851	-76.272872
630.852573	-76.218541
630.985351	-76.153957
631.118185	-76.080224
631.251075	-75.998571
631.384021	-75.910131
631.517023	-75.816017
631.650081	-75.717038
631.783195	-75.613849
631.916365	-75.506865
632.049592	-75.396325
632.182874	-75.282336
632.316213	-75.164775
632.449608	-75.043448
632.583059	-74.918153
632.716567	-74.788740
632.850131	-74.655357
632.983751	-74.518325
633.117428	-74.378203
633.251161	-74.235689
633.384951	-74.091537
633.518797	-73.946574
633.652700	-73.801566
633.786660	-73.657371
633.920676	-73.514785
634.054749	-73.374640
634.188879	-73.237597
634.323065	-73.104188
634.457308	-72.974864
634.591608	-72.849899
634.725965	-72.729495
634.860379	-72.613749
634.994850	-72.502759
635.129377	-72.396577
635.263962	-72.295256
635.398604	-72.198818
635.533303	-72.107183
635.668058	-72.020267
635.802872	-71.937901
635.937742	-71.859945
636.072669	-71.786163
636.207654	-71.716400
636.342696	-71.650444
636.477796	-71.588017
636.612953	-71.528849
636.748167	-71.472551
636.883439	-71.418826
637.018768	-71.367404
637.154155	-71.318076
637.289599	-71.270686
637.425101	-71.225197
637.560660	-71.181551
637.696277	-71.139773
637.831952	-71.099853
637.967685	-71.061842
638.103475	-71.025794
638.239324	-70.991859
638.375230	-70.960259
638.511194	-70.931248
638.647215	-70.905120
638.783295	-70.882148
638.919433	-70.862442
639.055629	-70.846044
639.191883	-70.832911
639.328195	-70.822885
639.464565	-70.815814
639.600994	-70.811620
639.737481	-70.810211
639.874025	-70.811559
640.010629	-70.815715
640.147290	-70.822818
640.284010	-70.833131
640.420789	-70.847082
640.557625	-70.865154
640.694521	-70.887852
640.831474	-70.915643
640.968487	-70.948869
641.105558	-70.987908
641.242687	-71.033056
641.379876	-71.084721
641.517123	-71.143262
641.654429	-71.208972
641.791793	-71.282079
641.929216	-71.362627
642.066699	-71.450619
642.204240	-71.545930
642.341840	-71.648433
642.479499	-71.757952
642.617217	-71.874213
642.754994	-71.996806
642.892830	-72.125232
643.030726	-72.258794
643.168680	-72.396693
643.306694	-72.537971
643.444767	-72.681567
643.582899	-72.826307
643.721091	-72.970817
643.859342	-73.113589
643.997652	-73.252912
644.136022	-73.386848
644.274451	-73.513270
644.412940	-73.629961
644.551488	-73.734725
644.690096	-73.825506
644.828763	-73.900569
644.967490	-73.958552
645.106277	-73.998643
645.245124	-74.020580
645.384030	-74.024642
645.522997	-74.011629
645.662023	-73.982776
645.801109	-73.939606
645.940255	-73.883688
646.079460	-73.816571
646.218726	-73.739759
646.358052	-73.654541
646.497438	-73.562104
646.636884	-73.463453
646.776391	-73.359481
646.915957	-73.250890
647.055584	-73.138215
647.195271	-73.021886
647.335019	-72.902252
647.474826	-72.779657
647.614695	-72.654470
647.754623	-72.527151
647.894612	-72.398261
648.034662	-72.268502
648.174772	-72.138732
648.314943	-72.009899
648.455174	-71.882999
648.595466	-71.759046
648.735819	-71.638983
648.876233	-71.523730
649.016707	-71.414050
649.157242	-71.310672
649.297838	-71.214304
649.438495	-71.125622
649.579213	-71.045282
649.719992	-70.973895
649.860832	-70.911970
650.001733	-70.859853
650.142695	-70.817782
650.283718	-70.785941
650.424803	-70.764450
650.565949	-70.753467
650.707156	-70.753224
650.848424	-70.764050
650.989754	-70.786297
651.131145	-70.820381
651.272597	-70.866652
651.414111	-70.925499
651.555687	-70.997213
651.697324	-71.082067
651.839022	-71.180252
651.980782	-71.291851
652.122604	-71.416767
652.264488	-71.554722
652.406433	-71.705324
652.548441	-71.867990
652.690510	-72.041851
652.832640	-72.225776
652.974833	-72.418214
653.117088	-72.617034
653.259405	-72.819604
653.401784	-73.022815
653.544224	-73.223060
653.686727	-73.416491
653.829293	-73.599157
653.971920	-73.767022
654.114609	-73.916208
654.257361	-74.043147
654.400175	-74.144816
654.543052	-74.218830
654.685991	-74.263520
654.828992	-74.278063
654.972056	-74.262488
655.115183	-74.217864
655.258372	-74.146134
655.401623	-74.050086
655.544937	-73.932741
655.688314	-73.797180
655.831754	-73.646232
655.975256	-73.482456
656.118822	-73.308211
656.262450	-73.125735
656.406141	-72.937217
656.549894	-72.744676
656.693711	-72.549957
656.837591	-72.354717
656.981534	-72.160340
657.125540	-71.968090
657.269610	-71.779143
657.413742	-71.594550
657.557938	-71.415239
657.702196	-71.241929
657.846519	-71.075068
657.990904	-70.914868
658.135353	-70.761369
658.279866	-70.614547
658.424441	-70.474360
658.569081	-70.340901
658.713784	-70.214232
658.858550	-70.094422
659.003381	-69.981566
659.148274	-69.875764
659.293232	-69.777184
659.438253	-69.686076
659.583339	-69.602851
659.728488	-69.527942
659.873701	-69.461790
660.018978	-69.404882
660.164318	-69.357771
660.309723	-69.321112
660.455192	-69.295736
660.600725	-69.282544
660.746323	-69.282424
660.891984	-69.296195
661.037710	-69.324566
661.183500	-69.368107
661.329354	-69.427310
661.475272	-69.502630
661.621255	-69.594310
661.767303	-69.702446
661.913415	-69.827089
662.059591	-69.968031
662.205833	-70.124820
662.352138	-70.296820
662.498509	-70.483067
662.644944	-70.682125
662.791443	-70.892113
662.938008	-71.110890
663.084638	-71.336075
663.231332	-71.565083
663.378091	-71.795158
663.524915	-72.023197
663.671804	-72.245769
663.818759	-72.459071
663.965778	-72.659112
664.112863	-72.841742
664.260012	-73.002786
664.407227	-73.138247
664.554507	-73.244496
664.701853	-73.318720
664.849264	-73.359218
664.996740	-73.365586
665.144282	-73.338623
665.291889	-73.279981
665.439561	-73.191896
665.587300	-73.077031
665.735103	-72.938410
665.882973	-72.779566
666.030908	-72.604493
666.178909	-72.417479
666.326976	-72.222943
666.475109	-72.025041
666.623307	-71.827405
666.771571	-71.633217
666.919902	-71.445217
667.068298	-71.265802
667.216761	-71.097104
667.365289	-70.941058
667.513884	-70.799445
667.662545	-70.673710
667.811272	-70.564960
667.960065	-70.473922
668.108925	-70.400918
668.257851	-70.345994
668.406843	-70.308882
668.555902	-70.289076
668.705027	-70.285887
668.854219	-70.298475
669.003478	-70.325873
669.152803	-70.367099
669.302195	-70.421344
669.451653	-70.487924
669.601179	-70.566222
669.750771	-70.655636
669.900430	-70.755542
670.050156	-70.865170
670.199949	-70.983753
670.349808	-71.110774
670.499735	-71.246170
670.649729	-71.390468
670.799790	-71.544802
670.949918	-71.710724
671.100114	-71.890022
671.250377	-72.084647
671.400707	-72.296711
671.551104	-72.528526
671.701569	-72.782765
671.852101	-73.062614
672.002700	-73.371718
672.153368	-73.714143
672.304102	-74.094288
672.454905	-74.516481
672.605775	-74.984851
672.756713	-75.503094
672.907718	-76.073740
673.058791	-76.697049
673.209933	-77.369431
673.361142	-78.080602
673.512419	-78.809264
673.663764	-79.517625
673.815177	-80.145938
673.966658	-80.613825
674.118207	-80.838332
674.269825	-80.767800
674.421510	-80.410298
674.573264	-79.829345
674.725086	-79.110161
674.876977	-78.328575
675.028936	-77.538455
675.180963	-76.772167
675.333059	-76.046517
675.485224	-75.368402
675.637457	-74.738854
675.789758	-74.155898
675.942129	-73.616500
676.094568	-73.117378
676.247075	-72.655308
676.399652	-72.227170
676.552298	-71.829861
676.705012	-71.460205
676.857795	-71.115147
677.010648	-70.791823
677.163569	-70.487639
677.316560	-70.200475
677.469619	-69.928572
677.622748	-69.670466
677.775946	-69.424937
677.929214	-69.191074
678.082551	-68.968379
678.235957	-68.756748
678.389432	-68.556488
678.542977	-68.368092
678.696592	-68.192093
678.850276	-68.028985
679.004030	-67.879176
679.157853	-67.743136
679.311746	-67.621436
679.465709	-67.514729
679.619742	-67.423737
679.773844	-67.349246
679.928017	-67.291948
680.082259	-67.252408
680.236571	-67.231138
680.390954	-67.228551
680.545406	-67.244884
680.699929	-67.280157
680.854522	-67.334135
681.009185	-67.406188
681.163918	-67.495405
681.318722	-67.600613
681.473596	-67.720397
681.628540	-67.853178
681.783555	-67.997087
681.938641	-68.149701
682.093797	-68.307867
682.249023	-68.467521
682.404321	-68.623796
682.559689	-68.771553
682.715128	-68.905852
682.870637	-69.022278
683.026218	-69.117191
683.181869	-69.187883
683.337591	-69.232751
683.493385	-69.251421
683.649249	-69.244754
683.805185	-69.214659
683.961191	-69.163698
684.117269	-69.094727
684.273418	-69.010902
684.429639	-68.915835
684.585930	-68.813538
684.742294	-68.708067
684.898728	-68.603136
685.055234	-68.501538
685.211812	-68.404908
685.368461	-68.313935
685.525182	-68.228519
685.681975	-68.147879
685.838839	-68.070706
685.995775	-67.995328
686.152783	-67.919602
686.309863	-67.840877
686.467014	-67.756308
686.624238	-67.662985
686.781534	-67.557919
686.938902	-67.438337
687.096342	-67.301990
687.253854	-67.147442
687.411438	-66.974370
687.569095	-66.783634
687.726824	-66.577048
687.884626	-66.357074
688.042499	-66.126470
688.200446	-65.888127
688.358465	-65.644940
688.516556	-65.399887
688.674720	-65.156087
688.832957	-64.916480
688.991266	-64.683816
689.149649	-64.460607
689.308104	-64.249111
689.466632	-64.051236
689.625233	-63.868590
689.783906	-63.702464
689.942653	-63.553765
690.101473	-63.423131
690.260367	-63.311044
690.419333	-63.217919
690.578372	-63.144179
690.737485	-63.090215
690.896672	-63.056238
691.055931	-63.042056
691.215264	-63.047155
691.374671	-63.070772
691.534151	-63.111896
691.693704	-63.169432
691.853332	-63.242260
692.013033	-63.329167
692.172807	-63.428639
692.332656	-63.538770
692.492578	-63.657154
692.652575	-63.780835
692.812645	-63.906366
692.972789	-64.029982
693.133007	-64.147834
693.293300	-64.256176
693.453666	-64.351541
693.614107	-64.430953
693.774622	-64.492005
693.935211	-64.532922
694.095875	-64.552666
694.256613	-64.550977
694.417426	-64.528358
694.578313	-64.485972
694.739274	-64.425619
694.900311	-64.349782
695.061421	-64.261570
695.222607	-64.164636
695.383868	-64.062950
695.545203	-63.960484
695.706613	-63.861062
695.868098	-63.768148
696.029658	-63.684751
696.191293	-63.613459
696.353003	-63.556485
696.514789	-63.515696
696.676649	-63.492547
696.838585	-63.488221
697.000596	-63.503810
697.162682	-63.540216
697.324844	-63.598207
697.487081	-63.678531
697.649394	-63.781936
697.811782	-63.909037
697.974246	-64.060313
698.136786	-64.236021
698.299401	-64.435934
698.462092	-64.659090
698.624859	-64.903764
698.787702	-65.167522
698.950621	-65.447260
699.113616	-65.739210
699.276686	-66.039036
699.439833	-66.341714
699.603056	-66.641160
699.766355	-66.930117
699.929731	-67.200476
700.093183	-67.443741
700.256711	-67.651763
700.420315	-67.817536
700.583996	-67.936111
700.747754	-68.005361
700.911588	-68.026099
701.075499	-68.002128
701.239486	-67.939657
701.403550	-67.846174
701.567691	-67.729480
701.731909	-67.597048
701.896203	-67.455719
702.060575	-67.311414
702.225024	-67.169146
702.389549	-67.033012
702.554152	-66.906104
702.718832	-66.790626
702.883589	-66.688224
703.048424	-66.600244
703.213335	-66.527887
703.378324	-66.472215
703.543391	-66.434140
703.708535	-66.414115
703.873757	-66.412191
704.039056	-66.428127
704.204433	-66.461469
704.369887	-66.511488
704.535420	-66.577223
704.701030	-66.657718
704.866718	-66.751867
705.032484	-66.858300
705.198328	-66.975760
705.364250	-67.103215
705.530250	-67.239774
705.696328	-67.384452
705.862485	-67.535962
706.028720	-67.692455
706.195033	-67.851711
706.361424	-68.011589
706.527894	-68.170688
706.694442	-68.328735
706.861069	-68.486663
707.027775	-68.646447
707.194559	-68.810559
707.361422	-68.981446
707.528363	-69.161209
707.695384	-69.351844
707.862483	-69.555369
708.029661	-69.773878
708.196918	-70.009667
708.364254	-70.264992
708.531670	-70.542016
708.699164	-70.842900
708.866738	-71.169844
709.034391	-71.524903
709.202123	-71.909723
709.369935	-72.325074
709.537826	-72.769772
709.705796	-73.240042
709.873847	-73.729110
710.041976	-74.226336
710.210186	-74.716755
710.378475	-75.181242
710.546844	-75.596885
710.715292	-75.939326
710.883821	-76.187557
711.052429	-76.328669
711.221118	-76.360011
711.389887	-76.288859
711.558735	-76.129527
711.727664	-75.899373
711.896673	-75.616429
712.065763	-75.298492
712.234932	-74.962108
712.404183	-74.621669
712.573513	-74.289476
712.742924	-73.975817
712.912416	-73.689071
713.081988	-73.435711
713.251641	-73.219920
713.421375	-73.043709
713.591190	-72.907195
713.761085	-72.808781
713.931061	-72.745984
714.101119	-72.716083
714.271257	-72.716332
714.441476	-72.744429
714.611777	-72.798752
714.782159	-72.877645
714.952622	-72.979146
715.123166	-73.101055
715.293792	-73.240937
715.464499	-73.395954
715.635288	-73.561919
715.806158	-73.732305
715.977110	-73.898593
716.148143	-74.051173
716.319259	-74.179653
716.490456	-74.275217
716.661735	-74.333052
716.833096	-74.353033
717.004538	-74.339136
717.176063	-74.298575
717.347670	-74.240638
717.519359	-74.174395
717.691130	-74.107409
717.862984	-74.045673
718.034920	-73.993921
718.206938	-73.956574
718.379039	-73.938007
718.551222	-73.942892
718.723488	-73.976031
718.895836	-74.042396
719.068267	-74.147214
719.240781	-74.295679
719.413377	-74.493320
719.586057	-74.746005
719.758819	-75.060200
719.931664	-75.443357
720.104593	-75.903732
720.277604	-76.450073
720.450699	-77.092877
720.623876	-77.845689
720.797137	-78.725229
720.970482	-79.752121
721.143910	-80.952358
721.317421	-82.354182
721.491016	-83.971831
721.664694	-85.744835
721.838456	-87.355046
722.012302	-88.013965
722.186231	-87.141924
722.360244	-85.341992
722.534342	-83.409325
722.708523	-81.662349
722.882788	-80.162120
723.057137	-78.893785
723.231570	-77.827370
723.406088	-76.934213
723.580689	-76.189329
723.755375	-75.571510
723.930146	-75.063623
724.105000	-74.651988
724.279940	-74.325547
724.454963	-74.075803
724.630072	-73.897082
724.805265	-73.786355
724.980543	-73.742665
725.155905	-73.766195
725.331353	-73.858415
725.506885	-74.021966
725.682503	-74.260412
725.858205	-74.576842
726.033993	-74.973632
726.209865	-75.453503
726.385823	-76.018765
726.561866	-76.670937
726.737995	-77.410078
726.914209	-78.232883
727.090508	-79.130748
727.266893	-80.086114
727.443364	-81.068258
727.619920	-82.030777
727.796562	-82.909094
727.973290	-83.628395
728.150103	-84.124749
728.327003	-84.371653
728.503988	-84.395764
728.681060	-84.266030
728.858218	-84.064766
729.035461	-83.866489
729.212791	-83.729158
729.390208	-83.698455
