# 2022-03-21_21.30.46
# shape = sech2
# FWHM_ps = 0.1
# carrier_nm = 1542
# frep_MHz = 12126
# pow_mW = 8000
# GDD = 0.0
# propa_len = 0.098
# untap_len = 0.01
# taper_len = 0.038
# waist_len = 0.02
# uptap_len = 0.02
# untap_scale = 1.0
# waist_scale = 0.3526315789473685
# workingDir = NL_20110305_12 (Spirou)
# axis = slow
# window_ps = 10.0
# steps = 200
# points = 21700
# 
# wavelength [nm]	 power spectral density [dB]
600.043425	-150.355433
600.163550	-147.483986
600.283723	-145.102680
600.403943	-143.075803
600.524212	-141.321747
600.644529	-139.791026
600.764895	-138.452232
600.885308	-137.284073
601.005770	-136.270834
601.126280	-135.399798
601.246839	-134.659628
601.367446	-134.039144
601.488101	-133.526182
601.608804	-133.106485
601.729557	-132.762779
601.850357	-132.474213
601.971206	-132.216474
602.092104	-131.962949
602.213050	-131.687417
602.334045	-131.368197
602.455089	-130.992546
602.576181	-130.559455
602.697322	-130.079405
602.818511	-129.571123
602.939749	-129.056997
603.061036	-128.559050
603.182372	-128.096412
603.303757	-127.684293
603.425191	-127.334003
603.546673	-127.053509
603.668204	-126.848120
603.789785	-126.721141
603.911414	-126.674409
604.033092	-126.708695
604.154820	-126.823899
604.276596	-127.019026
604.398422	-127.291882
604.520297	-127.638455
604.642220	-128.051975
604.764193	-128.521616
604.886216	-129.030834
605.008287	-129.555697
605.130408	-130.064317
605.252578	-130.518934
605.374798	-130.882014
605.497066	-131.125857
605.619385	-131.241789
605.741752	-131.243392
605.864169	-131.161365
605.986636	-131.033503
606.109152	-130.895667
606.231718	-130.776806
606.354333	-130.697617
606.476998	-130.671131
606.599712	-130.703906
606.722476	-130.797188
606.845290	-130.947787
606.968154	-131.148597
607.091067	-131.388965
607.214030	-131.655216
607.337043	-131.931586
607.460106	-132.201639
607.583219	-132.450199
607.706381	-132.665678
607.829594	-132.842033
607.952856	-132.979463
608.076169	-133.083647
608.199531	-133.163787
608.322944	-133.230112
608.446407	-133.291519
608.569920	-133.353960
608.693483	-133.419912
608.817096	-133.488935
608.940759	-133.559190
609.064473	-133.629497
609.188237	-133.701325
609.312051	-133.780295
609.435916	-133.876939
609.559831	-134.006486
609.683796	-134.187863
609.807812	-134.442484
609.931878	-134.793428
610.055995	-135.265405
610.180162	-135.885676
610.304380	-136.686107
610.428648	-137.706728
610.552967	-139.001299
610.677337	-140.645328
610.801757	-142.742642
610.926228	-145.389699
611.050750	-148.305081
611.175323	-149.438948
611.299946	-147.311370
611.424620	-144.490580
611.549345	-142.141767
611.674121	-140.289470
611.798948	-138.815602
611.923826	-137.622369
612.048755	-136.639674
612.173734	-135.816568
612.298765	-135.114293
612.423847	-134.501884
612.548980	-133.953649
612.674165	-133.448112
612.799400	-132.968077
612.924687	-132.501197
613.050025	-132.040365
613.175414	-131.583502
613.300854	-131.132526
613.426346	-130.691647
613.551889	-130.265454
613.677484	-129.857277
613.803130	-129.468180
613.928827	-129.096758
614.054576	-128.739781
614.180377	-128.393577
614.306229	-128.055860
614.432132	-127.727439
614.558087	-127.413235
614.684094	-127.122287
614.810153	-126.866803
614.936263	-126.660600
615.062425	-126.517431
615.188639	-126.449505
615.314904	-126.466215
615.441222	-126.572964
615.567591	-126.769877
615.694012	-127.050244
615.820486	-127.398846
615.947011	-127.790770
616.073588	-128.192064
616.200217	-128.564107
616.326898	-128.872758
616.453632	-129.099985
616.580417	-129.251862
616.707255	-129.357572
616.834144	-129.460282
616.961086	-129.605883
617.088081	-129.835164
617.215127	-130.181103
617.342226	-130.669934
617.469378	-131.324101
617.596581	-132.166210
617.723837	-133.224307
617.851146	-134.539378
617.978507	-136.176177
618.105920	-138.235609
618.233386	-140.838655
618.360905	-143.829175
618.488476	-145.266942
618.616100	-143.058573
618.743777	-139.948549
618.871506	-137.369057
618.999288	-135.365367
619.127123	-133.820862
619.255011	-132.644616
619.382951	-131.776099
619.510945	-131.173955
619.638991	-130.806921
619.767090	-130.647184
619.895243	-130.664925
620.023448	-130.823365
620.151706	-131.075049
620.280017	-131.361900
620.408382	-131.622633
620.536799	-131.808298
620.665270	-131.898524
620.793794	-131.904976
620.922371	-131.856263
621.051002	-131.773311
621.179686	-131.649068
621.308423	-131.442510
621.437213	-131.093550
621.566057	-130.557616
621.694954	-129.839632
621.823905	-128.998001
621.952909	-128.116571
622.081967	-127.272750
622.211079	-126.522019
622.340244	-125.897123
622.469462	-125.412875
622.598735	-125.070801
622.728061	-124.861887
622.857441	-124.767450
622.986874	-124.758874
623.116361	-124.797642
623.245903	-124.837597
623.375498	-124.831371
623.505147	-124.741007
623.634850	-124.548689
623.764606	-124.260813
623.894417	-123.902378
624.024282	-123.505917
624.154201	-123.101703
624.284174	-122.712763
624.414202	-122.354351
624.544283	-122.035906
624.674419	-121.763751
624.804609	-121.543424
624.934853	-121.381228
625.065151	-121.284927
625.195504	-121.263710
625.325911	-121.327673
625.456373	-121.487041
625.586889	-121.751344
625.717460	-122.128587
625.848085	-122.624257
625.978764	-123.239981
626.109498	-123.971683
626.240287	-124.807240
626.371131	-125.723954
626.502029	-126.687273
626.632982	-127.653898
626.763989	-128.582773
626.895052	-129.453272
627.026169	-130.281903
627.157341	-131.126399
627.288568	-132.076185
627.419850	-133.240134
627.551187	-134.741288
627.682579	-136.710006
627.814026	-139.192353
627.945528	-141.538895
628.077085	-141.442749
628.208697	-138.928175
628.340364	-136.299504
628.472087	-134.202785
628.603865	-132.608499
628.735698	-131.417055
628.867586	-130.550043
628.999530	-129.953374
629.131529	-129.590707
629.263584	-129.437467
629.395694	-129.475608
629.527859	-129.687287
629.660080	-130.044831
629.792357	-130.493653
629.924689	-130.927735
630.057077	-131.174480
630.189520	-131.039206
630.322019	-130.433067
630.454574	-129.453748
630.587184	-128.298650
630.719851	-127.138313
630.852573	-126.074724
630.985351	-125.156843
631.118185	-124.403922
631.251075	-123.820947
631.384021	-123.406820
631.517023	-123.158338
631.650081	-123.072069
631.783195	-123.145196
631.916365	-123.375783
632.049592	-123.762698
632.182874	-124.305373
632.316213	-125.003302
632.449608	-125.854876
632.583059	-126.854854
632.716567	-127.989222
632.850131	-129.225247
632.983751	-130.494427
633.117428	-131.671561
633.251161	-132.574154
633.384951	-133.029455
633.518797	-132.994262
633.652700	-132.586315
633.786660	-131.981001
633.920676	-131.313471
634.054749	-130.657672
634.188879	-130.043946
634.323065	-129.479002
634.457308	-128.958780
634.591608	-128.475416
634.725965	-128.020882
634.860379	-127.588883
634.994850	-127.175769
635.129377	-126.780804
635.263962	-126.405916
635.398604	-126.054975
635.533303	-125.732888
635.668058	-125.444882
635.802872	-125.196146
635.937742	-124.991902
636.072669	-124.837915
636.207654	-124.741258
636.342696	-124.711113
636.477796	-124.759478
636.612953	-124.901761
636.748167	-125.157272
636.883439	-125.549695
637.018768	-126.107615
637.154155	-126.864910
637.289599	-127.859573
637.425101	-129.125482
637.560660	-130.657682
637.696277	-132.292259
637.831952	-133.445193
637.967685	-133.252629
638.103475	-131.800516
638.239324	-129.974937
638.375230	-128.295913
638.511194	-126.897902
638.647215	-125.780147
638.783295	-124.910605
638.919433	-124.254714
639.055629	-123.781534
639.191883	-123.463954
639.328195	-123.277536
639.464565	-123.199175
639.600994	-123.205852
639.737481	-123.273577
639.874025	-123.376828
640.010629	-123.488853
640.147290	-123.583255
640.284010	-123.637020
640.420789	-123.634329
640.557625	-123.569653
640.694521	-123.448392
640.831474	-123.284490
640.968487	-123.096141
641.105558	-122.901389
641.242687	-122.714988
641.379876	-122.547044
641.517123	-122.403163
641.654429	-122.285653
641.791793	-122.195265
641.929216	-122.133008
642.066699	-122.101662
642.204240	-122.106818
642.341840	-122.157372
642.479499	-122.265487
642.617217	-122.446134
642.754994	-122.716346
642.892830	-123.094052
643.030726	-123.595710
643.168680	-124.230654
643.306694	-124.987518
643.444767	-125.804070
643.582899	-126.515820
643.721091	-126.829869
643.859342	-126.470217
643.997652	-125.458712
644.136022	-124.093554
644.274451	-122.664652
644.412940	-121.331100
644.551488	-120.155086
644.690096	-119.151753
644.828763	-118.317411
644.967490	-117.642362
645.106277	-117.116448
645.245124	-116.731484
645.384030	-116.482415
645.522997	-116.367989
645.662023	-116.391320
645.801109	-116.560515
645.940255	-116.889512
646.079460	-117.399394
646.218726	-118.120766
646.358052	-119.098276
646.497438	-120.399420
646.636884	-122.132499
646.776391	-124.485208
646.915957	-127.803100
647.055584	-132.503337
647.195271	-134.798794
647.335019	-130.287228
647.474826	-126.446599
647.614695	-123.812275
647.754623	-121.926877
647.894612	-120.525806
648.034662	-119.458489
648.174772	-118.631491
648.314943	-117.982580
648.455174	-117.468681
648.595466	-117.059989
648.735819	-116.736763
648.876233	-116.487124
649.016707	-116.305079
649.157242	-116.188561
649.297838	-116.137443
649.438495	-116.151558
649.579213	-116.228850
649.719992	-116.363898
649.860832	-116.547040
650.001733	-116.764260
650.142695	-116.998178
650.283718	-117.230494
650.424803	-117.445760
650.565949	-117.635505
650.707156	-117.800917
650.848424	-117.952606
650.989754	-118.107456
651.131145	-118.283963
651.272597	-118.497621
651.414111	-118.757263
651.555687	-119.062600
651.697324	-119.402927
651.839022	-119.756932
651.980782	-120.093997
652.122604	-120.377767
652.264488	-120.572451
652.406433	-120.650953
652.548441	-120.602163
652.690510	-120.434132
652.832640	-120.171539
652.974833	-119.848992
653.117088	-119.503398
653.259405	-119.167846
653.401784	-118.867680
653.544224	-118.618345
653.686727	-118.424382
653.829293	-118.279474
653.971920	-118.167985
654.114609	-118.068710
654.257361	-117.961148
654.400175	-117.833227
654.543052	-117.687303
654.685991	-117.540981
654.828992	-117.422083
654.972056	-117.360207
655.115183	-117.377729
655.258372	-117.481194
655.401623	-117.652284
655.544937	-117.838312
655.688314	-117.948247
655.831754	-117.870069
655.975256	-117.520752
656.118822	-116.899748
656.262450	-116.089166
656.406141	-115.201005
656.549894	-114.328550
656.693711	-113.530636
656.837591	-112.837015
656.981534	-112.258635
657.125540	-111.795955
657.269610	-111.444342
657.413742	-111.197284
657.557938	-111.048182
657.702196	-110.991195
657.846519	-111.021346
657.990904	-111.134005
658.135353	-111.323831
658.279866	-111.583191
658.424441	-111.900101
658.569081	-112.255977
658.713784	-112.623925
658.858550	-112.968990
659.003381	-113.252244
659.148274	-113.439580
659.293232	-113.512713
659.438253	-113.476468
659.583339	-113.357249
659.728488	-113.193647
659.873701	-113.025366
660.018978	-112.885606
660.164318	-112.798050
660.309723	-112.777027
660.455192	-112.828995
660.600725	-112.954326
660.746323	-113.149230
660.891984	-113.407975
661.037710	-113.725414
661.183500	-114.099624
661.329354	-114.534242
661.475272	-115.039954
661.621255	-115.634609
661.767303	-116.341853
661.913415	-117.188440
662.059591	-118.199842
662.205833	-119.392295
662.352138	-120.756354
662.498509	-122.223270
662.644944	-123.614047
662.791443	-124.633465
662.938008	-125.050749
663.084638	-124.951723
663.231332	-124.650725
663.378091	-124.423306
663.524915	-124.423111
663.671804	-124.723690
663.818759	-125.358424
663.965778	-126.309290
664.112863	-127.371759
664.260012	-127.817230
664.407227	-126.646669
664.554507	-124.174566
664.701853	-121.449986
664.849264	-118.959467
664.996740	-116.800852
665.144282	-114.961675
665.291889	-113.410027
665.439561	-112.115659
665.587300	-111.053102
665.735103	-110.200768
665.882973	-109.539448
666.030908	-109.050905
666.178909	-108.716612
666.326976	-108.516544
666.475109	-108.428014
666.623307	-108.424672
666.771571	-108.475850
666.919902	-108.546585
667.068298	-108.598869
667.216761	-108.594774
667.365289	-108.501621
667.513884	-108.298264
667.662545	-107.980214
667.811272	-107.561178
667.960065	-107.069970
668.108925	-106.544163
668.257851	-106.023295
668.406843	-105.543888
668.555902	-105.136989
668.705027	-104.827772
668.854219	-104.636348
669.003478	-104.579099
669.152803	-104.670126
669.302195	-104.922710
669.451653	-105.350936
669.601179	-105.971670
669.750771	-106.807280
669.900430	-107.889876
670.050156	-109.268739
670.199949	-111.024836
670.349808	-113.303162
670.499735	-116.399530
670.649729	-121.075570
670.799790	-130.776357
670.949918	-131.750134
671.100114	-122.652276
671.250377	-118.877237
671.400707	-116.770430
671.551104	-115.566014
671.701569	-114.984290
671.852101	-114.900263
672.002700	-115.245563
672.153368	-115.946501
672.304102	-116.826611
672.454905	-117.446480
672.605775	-117.162299
672.756713	-115.835109
672.907718	-114.022526
673.058791	-112.223524
673.209933	-110.633628
673.361142	-109.289692
673.512419	-108.176437
673.663764	-107.267052
673.815177	-106.536135
673.966658	-105.963470
674.118207	-105.534921
674.269825	-105.242339
674.421510	-105.083002
674.573264	-105.058797
674.725086	-105.175145
674.876977	-105.439656
675.028936	-105.860343
675.180963	-106.442900
675.333059	-107.186068
675.485224	-108.073237
675.637457	-109.057853
675.789758	-110.042953
675.942129	-110.869818
676.094568	-111.357207
676.247075	-111.410144
676.399652	-111.094407
676.552298	-110.571810
676.705012	-109.990032
676.857795	-109.439561
677.010648	-108.964839
677.163569	-108.586164
677.316560	-108.314986
677.469619	-108.161325
677.622748	-108.135791
677.775946	-108.248604
677.929214	-108.507128
678.082551	-108.912389
678.235957	-109.454398
678.389432	-110.106073
678.542977	-110.816787
678.696592	-111.510146
678.850276	-112.095545
679.004030	-112.499883
679.157853	-112.704040
679.311746	-112.750506
679.465709	-112.713714
679.619742	-112.663023
679.773844	-112.643931
679.928017	-112.677228
680.082259	-112.765702
680.236571	-112.901434
680.390954	-113.071238
680.545406	-113.259674
680.699929	-113.449519
680.854522	-113.619706
681.009185	-113.741198
681.163918	-113.772696
681.318722	-113.661065
681.473596	-113.353423
681.628540	-112.821688
681.783555	-112.084342
681.938641	-111.204618
682.093797	-110.265763
682.249023	-109.344707
682.404321	-108.499006
682.559689	-107.766121
682.715128	-107.168193
682.870637	-106.717586
683.026218	-106.421460
683.181869	-106.285095
683.337591	-106.314011
683.493385	-106.514761
683.649249	-106.893549
683.805185	-107.450441
683.961191	-108.164278
684.117269	-108.959810
684.273418	-109.655582
684.429639	-109.950966
684.585930	-109.598141
684.742294	-108.665021
684.898728	-107.462130
685.055234	-106.265725
685.211812	-105.223105
685.368461	-104.392660
685.525182	-103.790826
685.681975	-103.417655
685.838839	-103.268238
685.995775	-103.337571
686.152783	-103.622667
686.309863	-104.123345
686.467014	-104.841704
686.624238	-105.778439
686.781534	-106.919913
686.938902	-108.200339
687.096342	-109.413979
687.253854	-110.120941
687.411438	-109.864434
687.569095	-108.729240
687.726824	-107.224037
687.884626	-105.733851
688.042499	-104.418932
688.200446	-103.323619
688.358465	-102.450228
688.516556	-101.788639
688.674720	-101.326151
688.832957	-101.050170
688.991266	-100.948370
689.149649	-101.007917
689.308104	-101.214259
689.466632	-101.549638
689.625233	-101.991373
689.783906	-102.510004
689.942653	-103.067607
690.101473	-103.617199
690.260367	-104.104855
690.419333	-104.476599
690.578372	-104.690779
690.737485	-104.732235
690.896672	-104.620023
691.055931	-104.402700
691.215264	-104.144217
691.374671	-103.909310
691.534151	-103.754617
691.693704	-103.726094
691.853332	-103.860373
692.013033	-104.187689
692.172807	-104.735073
692.332656	-105.529410
692.492578	-106.600428
692.652575	-107.983677
692.812645	-109.723097
692.972789	-111.870153
693.133007	-114.464331
693.293300	-117.428063
693.453666	-120.186547
693.614107	-121.404839
693.774622	-120.901043
693.935211	-120.012721
694.095875	-119.457703
694.256613	-119.382283
694.417426	-119.810421
694.578313	-120.802128
694.739274	-122.526329
694.900311	-125.335733
695.061421	-129.295671
695.222607	-128.675790
695.383868	-123.400758
695.545203	-119.259743
695.706613	-116.189310
695.868098	-113.805937
696.029658	-111.889648
696.191293	-110.311475
696.353003	-108.989236
696.514789	-107.866606
696.676649	-106.902865
696.838585	-106.067679
697.000596	-105.338423
697.162682	-104.698987
697.324844	-104.139327
697.487081	-103.655050
697.649394	-103.246466
697.811782	-102.916917
697.974246	-102.670456
698.136786	-102.509081
698.299401	-102.429883
698.462092	-102.422512
698.624859	-102.467674
698.787702	-102.537941
698.950621	-102.602277
699.113616	-102.634455
699.276686	-102.622535
699.439833	-102.574029
699.603056	-102.512976
699.766355	-102.470644
699.929731	-102.475232
700.093183	-102.544762
700.256711	-102.684221
700.420315	-102.886492
700.583996	-103.136695
700.747754	-103.419479
700.911588	-103.727567
701.075499	-104.068255
701.239486	-104.464771
701.403550	-104.952157
701.567691	-105.570511
701.731909	-106.358908
701.896203	-107.351417
702.060575	-108.574508
702.225024	-110.044339
702.389549	-111.762677
702.554152	-113.712456
702.718832	-115.860699
702.883589	-118.188864
703.048424	-120.773433
703.213335	-123.889879
703.378324	-127.723801
703.543391	-128.563482
703.708535	-123.983701
703.873757	-119.772849
704.039056	-116.590305
704.204433	-114.124716
704.369887	-112.161691
704.535420	-110.571002
704.701030	-109.267732
704.866718	-108.191413
705.032484	-107.295952
705.198328	-106.545792
705.364250	-105.915805
705.530250	-105.392844
705.696328	-104.976864
705.862485	-104.680345
706.028720	-104.525926
706.195033	-104.543066
706.361424	-104.764627
706.527894	-105.223620
706.694442	-105.948625
706.861069	-106.952450
707.027775	-108.199866
707.194559	-109.527973
707.361422	-110.535106
707.528363	-110.713641
707.695384	-110.025770
707.862483	-108.951924
708.029661	-107.908929
708.196918	-107.068902
708.364254	-106.464714
708.531670	-106.075791
708.699164	-105.864336
708.866738	-105.788472
709.034391	-105.806987
709.202123	-105.880814
709.369935	-105.972827
709.537826	-106.047154
709.705796	-106.069602
709.873847	-106.010758
710.041976	-105.851734
710.210186	-105.589729
710.378475	-105.239395
710.546844	-104.828517
710.715292	-104.390635
710.883821	-103.958637
711.052429	-103.561473
711.221118	-103.223796
711.389887	-102.967299
711.558735	-102.812522
711.727664	-102.780492
711.896673	-102.893993
712.065763	-103.178336
712.234932	-103.661232
712.404183	-104.370583
712.573513	-105.326722
712.742924	-106.519160
712.912416	-107.844962
713.081988	-108.993964
713.251641	-109.445991
713.421375	-108.951965
713.591190	-107.891777
713.761085	-106.764853
713.931061	-105.826569
714.101119	-105.150870
714.271257	-104.734377
714.441476	-104.544588
714.611777	-104.536477
714.782159	-104.657753
714.952622	-104.851658
715.123166	-105.060708
715.293792	-105.231999
715.464499	-105.322858
715.635288	-105.304936
715.806158	-105.165780
715.977110	-104.908664
716.148143	-104.551554
716.319259	-104.124689
716.490456	-103.666434
716.661735	-103.218520
716.833096	-102.822031
717.004538	-102.514980
717.176063	-102.331691
717.347670	-102.303409
717.519359	-102.459453
717.691130	-102.828590
717.862984	-103.440424
718.034920	-104.326110
718.206938	-105.515870
718.379039	-107.024186
718.551222	-108.791449
718.723488	-110.505537
718.895836	-111.373652
719.068267	-110.752707
719.240781	-109.189772
719.413377	-107.485989
719.586057	-105.971987
719.758819	-104.717131
719.931664	-103.719610
720.104593	-102.968554
720.277604	-102.457982
720.450699	-102.187877
720.623876	-102.162924
720.797137	-102.391562
720.970482	-102.885921
721.143910	-103.662665
721.317421	-104.744341
721.491016	-106.159234
721.664694	-107.931488
721.838456	-110.027542
722.012302	-112.146601
722.186231	-113.326938
722.360244	-112.675478
722.534342	-110.955871
722.708523	-109.170689
722.882788	-107.647199
723.057137	-106.413977
