# 2022-03-22_11.01.11
# shape = sech2
# FWHM_ps = 0.11
# carrier_nm = 1542
# frep_MHz = 12126
# pow_mW = 8000
# GDD = 0.0
# propa_len = 0.13244444444444445
# untap_len = 0.01
# taper_len = 0.07244444444444445
# waist_len = 0.02
# uptap_len = 0.02
# untap_scale = 1.0
# waist_scale = 0.22631578947368425
# workingDir = NL_20110305_12 (Spirou)
# axis = slow
# window_ps = 10.0
# steps = 200
# points = 21700
# 
# wavelength [nm]	 power spectral density [dB]
600.043425	-87.391661
600.163550	-87.275407
600.283723	-87.276032
600.403943	-87.421614
600.524212	-87.705574
600.644529	-88.124154
600.764895	-88.676825
600.885308	-89.325834
601.005770	-90.016990
601.126280	-90.689326
601.246839	-91.231827
601.367446	-91.597405
601.488101	-91.810596
601.608804	-91.930445
601.729557	-92.025777
601.850357	-92.184566
601.971206	-92.474513
602.092104	-92.931841
602.213050	-93.535637
602.334045	-94.262350
602.455089	-95.117355
602.576181	-96.091314
602.697322	-97.142435
602.818511	-98.249662
602.939749	-99.342971
603.061036	-100.314773
603.182372	-101.121786
603.303757	-101.670601
603.425191	-101.901765
603.546673	-101.859435
603.668204	-101.600660
603.789785	-101.203632
603.911414	-100.750261
604.033092	-100.348610
604.154820	-100.133501
604.276596	-100.149728
604.398422	-100.444818
604.520297	-101.009675
604.642220	-101.830591
604.764193	-102.875913
604.886216	-104.119527
605.008287	-105.365299
605.130408	-106.321494
605.252578	-106.778283
605.374798	-106.822780
605.497066	-106.527524
605.619385	-106.065454
605.741752	-105.447458
605.864169	-104.549562
605.986636	-103.415176
606.109152	-102.239641
606.231718	-101.044634
606.354333	-99.826981
606.476998	-98.643959
606.599712	-97.517271
606.722476	-96.581448
606.845290	-95.902527
606.968154	-95.463654
607.091067	-95.280129
607.214030	-95.374095
607.337043	-95.712610
607.460106	-96.175362
607.583219	-96.619748
607.706381	-96.884080
607.829594	-96.812243
607.952856	-96.468253
608.076169	-96.037024
608.199531	-95.612082
608.322944	-95.258787
608.446407	-95.030003
608.569920	-94.958574
608.693483	-95.040402
608.817096	-95.237809
608.940759	-95.494622
609.064473	-95.783884
609.188237	-95.959343
609.312051	-95.887313
609.435916	-95.426839
609.559831	-94.646981
609.683796	-93.770692
609.807812	-92.949309
609.931878	-92.268529
610.055995	-91.764132
610.180162	-91.450959
610.304380	-91.330017
610.428648	-91.363596
610.552967	-91.511209
610.677337	-91.765418
610.801757	-92.086463
610.926228	-92.405168
611.050750	-92.717255
611.175323	-92.995394
611.299946	-93.195870
611.424620	-93.317130
611.549345	-93.390815
611.674121	-93.430477
611.798948	-93.484706
611.923826	-93.549852
612.048755	-93.597084
612.173734	-93.620753
612.298765	-93.642337
612.423847	-93.607749
612.548980	-93.476657
612.674165	-93.250661
612.799400	-93.007944
612.924687	-92.753355
613.050025	-92.455303
613.175414	-92.149375
613.300854	-91.819346
613.426346	-91.434944
613.551889	-91.005273
613.677484	-90.514970
613.803130	-89.985075
613.928827	-89.444161
614.054576	-88.904652
614.180377	-88.374344
614.306229	-87.871716
614.432132	-87.444737
614.558087	-87.102354
614.684094	-86.852849
614.810153	-86.714184
614.936263	-86.678651
615.062425	-86.712731
615.188639	-86.778393
615.314904	-86.832885
615.441222	-86.849465
615.567591	-86.824272
615.694012	-86.742981
615.820486	-86.621405
615.947011	-86.449909
616.073588	-86.231807
616.200217	-85.992541
616.326898	-85.760646
616.453632	-85.564710
616.580417	-85.431914
616.707255	-85.399287
616.834144	-85.465804
616.961086	-85.603858
617.088081	-85.774674
617.215127	-85.928025
617.342226	-86.039055
617.469378	-86.075985
617.596581	-86.017804
617.723837	-85.870729
617.851146	-85.664265
617.978507	-85.414773
618.105920	-85.134957
618.233386	-84.854761
618.360905	-84.585177
618.488476	-84.332123
618.616100	-84.109130
618.743777	-83.911641
618.871506	-83.728948
618.999288	-83.556997
619.127123	-83.405488
619.255011	-83.260725
619.382951	-83.111878
619.510945	-82.948527
619.638991	-82.762867
619.767090	-82.566706
619.895243	-82.355379
620.023448	-82.125674
620.151706	-81.905414
620.280017	-81.712789
620.408382	-81.558671
620.536799	-81.446247
620.665270	-81.386294
620.793794	-81.383224
620.922371	-81.436184
621.051002	-81.546727
621.179686	-81.708220
621.308423	-81.913135
621.437213	-82.137769
621.566057	-82.377071
621.694954	-82.610240
621.823905	-82.830866
621.952909	-83.044710
622.081967	-83.258023
622.211079	-83.463413
622.340244	-83.673297
622.469462	-83.889837
622.598735	-84.113620
622.728061	-84.338347
622.857441	-84.580339
622.986874	-84.848209
623.116361	-85.152820
623.245903	-85.508634
623.375498	-85.926080
623.505147	-86.398144
623.634850	-86.893968
623.764606	-87.360815
623.894417	-87.789897
624.024282	-88.168314
624.154201	-88.496337
624.284174	-88.780096
624.414202	-89.029075
624.544283	-89.254779
624.674419	-89.464043
624.804609	-89.617964
624.934853	-89.700162
625.065151	-89.722915
625.195504	-89.701802
625.325911	-89.643627
625.456373	-89.532435
625.586889	-89.364634
625.717460	-89.202457
625.848085	-89.050895
625.978764	-88.894581
626.109498	-88.719447
626.240287	-88.570129
626.371131	-88.429676
626.502029	-88.299073
626.632982	-88.164125
626.763989	-88.038346
626.895052	-87.929637
627.026169	-87.855651
627.157341	-87.842986
627.288568	-87.931908
627.419850	-88.168553
627.551187	-88.555531
627.682579	-89.077223
627.814026	-89.685557
627.945528	-90.392693
628.077085	-91.127403
628.208697	-91.835982
628.340364	-92.357476
628.472087	-92.541446
628.603865	-92.155289
628.735698	-91.300885
628.867586	-90.193018
628.999530	-89.093253
629.131529	-88.094516
629.263584	-87.302180
629.395694	-86.659577
629.527859	-86.166424
629.660080	-85.766297
629.792357	-85.473165
629.924689	-85.225905
630.057077	-85.056909
630.189520	-84.937702
630.322019	-84.890384
630.454574	-84.876228
630.587184	-84.937007
630.719851	-85.031066
630.852573	-85.200783
630.985351	-85.433539
631.118185	-85.745288
631.251075	-86.106044
631.384021	-86.565449
631.517023	-87.079439
631.650081	-87.676720
631.783195	-88.345651
631.916365	-89.162007
632.049592	-90.116324
632.182874	-91.254150
632.316213	-92.539530
632.449608	-94.028651
632.583059	-95.603866
632.716567	-97.335063
632.850131	-99.355380
632.983751	-101.888514
633.117428	-104.107337
633.251161	-103.591215
633.384951	-100.654948
633.518797	-97.646725
633.652700	-95.136534
633.786660	-93.011495
633.920676	-91.157925
634.054749	-89.553851
634.188879	-88.209958
634.323065	-87.069705
634.457308	-86.096189
634.591608	-85.277785
634.725965	-84.586651
634.860379	-83.980217
634.994850	-83.440979
635.129377	-82.949405
635.263962	-82.497683
635.398604	-82.097087
635.533303	-81.738750
635.668058	-81.412949
635.802872	-81.095764
635.937742	-80.807653
636.072669	-80.545913
636.207654	-80.328034
636.342696	-80.175977
636.477796	-80.109337
636.612953	-80.108346
636.748167	-80.172207
636.883439	-80.301900
637.018768	-80.500063
637.154155	-80.784964
637.289599	-81.169203
637.425101	-81.659526
637.560660	-82.248423
637.696277	-82.924993
637.831952	-83.658293
637.967685	-84.443826
638.103475	-85.261997
638.239324	-86.095022
638.375230	-86.906334
638.511194	-87.605368
638.647215	-88.091269
638.783295	-88.233045
638.919433	-87.971118
639.055629	-87.371989
639.191883	-86.560913
639.328195	-85.660747
639.464565	-84.750601
639.600994	-83.905270
639.737481	-83.133062
639.874025	-82.434726
640.010629	-81.775213
640.147290	-81.166499
640.284010	-80.604546
640.420789	-80.100793
640.557625	-79.647046
640.694521	-79.250405
640.831474	-78.882700
640.968487	-78.524985
641.105558	-78.172492
641.242687	-77.837658
641.379876	-77.534400
641.517123	-77.286711
641.654429	-77.099014
641.791793	-76.978278
641.929216	-76.915180
642.066699	-76.902309
642.204240	-76.940651
642.341840	-77.036212
642.479499	-77.193122
642.617217	-77.410233
642.754994	-77.682540
642.892830	-78.006878
643.030726	-78.387005
643.168680	-78.840074
643.306694	-79.376653
643.444767	-80.028581
643.582899	-80.804613
643.721091	-81.704358
643.859342	-82.729714
643.997652	-83.903486
644.136022	-85.247306
644.274451	-86.803266
644.412940	-88.644640
644.551488	-90.829227
644.690096	-93.501225
644.828763	-96.940653
644.967490	-101.413446
645.106277	-103.336393
645.245124	-99.103331
645.384030	-95.230384
645.522997	-92.541745
645.662023	-90.609486
645.801109	-89.183265
645.940255	-88.123277
646.079460	-87.253258
646.218726	-86.468614
646.358052	-85.773470
646.497438	-85.147560
646.636884	-84.574245
646.776391	-84.069911
646.915957	-83.620868
647.055584	-83.207137
647.195271	-82.804122
647.335019	-82.408184
647.474826	-82.032641
647.614695	-81.677507
647.754623	-81.361886
647.894612	-81.115193
648.034662	-80.930311
648.174772	-80.830323
648.314943	-80.815450
648.455174	-80.876325
648.595466	-80.994782
648.735819	-81.164988
648.876233	-81.352867
649.016707	-81.547897
649.157242	-81.728350
649.297838	-81.859935
649.438495	-81.921387
649.579213	-81.861145
649.719992	-81.633018
649.860832	-81.269153
650.001733	-80.823747
650.142695	-80.371979
650.283718	-79.988494
650.424803	-79.710442
650.565949	-79.544280
650.707156	-79.497236
650.848424	-79.579280
650.989754	-79.782442
651.131145	-80.106193
651.272597	-80.564219
651.414111	-81.150381
651.555687	-81.860443
651.697324	-82.708291
651.839022	-83.740531
651.980782	-84.995452
652.122604	-86.547034
652.264488	-88.492182
652.406433	-91.021468
652.548441	-94.415182
652.690510	-99.057008
652.832640	-101.347095
652.974833	-96.901621
653.117088	-92.913192
653.259405	-90.030166
653.401784	-87.849680
653.544224	-86.141698
653.686727	-84.729748
653.829293	-83.555955
653.971920	-82.597741
654.114609	-81.792399
654.257361	-81.116764
654.400175	-80.531482
654.543052	-79.990630
654.685991	-79.465088
654.828992	-78.951429
654.972056	-78.458609
655.115183	-78.013408
655.258372	-77.622991
655.401623	-77.295775
655.544937	-77.024230
655.688314	-76.795840
655.831754	-76.612418
655.975256	-76.490087
656.118822	-76.428542
656.262450	-76.444604
656.406141	-76.560135
656.549894	-76.775205
656.693711	-77.100207
656.837591	-77.547318
656.981534	-78.124605
657.125540	-78.827095
657.269610	-79.653158
657.413742	-80.593272
657.557938	-81.607106
657.702196	-82.635380
657.846519	-83.604638
657.990904	-84.374700
658.135353	-84.785736
658.279866	-84.752766
658.424441	-84.350734
658.569081	-83.719965
658.713784	-82.963847
658.858550	-82.183766
659.003381	-81.417089
659.148274	-80.666224
659.293232	-79.925845
659.438253	-79.224512
659.583339	-78.563887
659.728488	-77.946330
659.873701	-77.392875
660.018978	-76.903934
660.164318	-76.462273
660.309723	-76.061641
660.455192	-75.697990
660.600725	-75.364456
660.746323	-75.070589
660.891984	-74.833560
661.037710	-74.650898
661.183500	-74.522470
661.329354	-74.460023
661.475272	-74.455286
661.621255	-74.505798
661.767303	-74.611144
661.913415	-74.775720
662.059591	-74.985145
662.205833	-75.259518
662.352138	-75.600977
662.498509	-76.027509
662.644944	-76.530737
662.791443	-77.121923
662.938008	-77.777622
663.084638	-78.480665
663.231332	-79.221513
663.378091	-79.996829
663.524915	-80.773835
663.671804	-81.556359
663.818759	-82.331147
663.965778	-83.054622
664.112863	-83.698037
664.260012	-84.220393
664.407227	-84.568485
664.554507	-84.720256
664.701853	-84.669885
664.849264	-84.397573
664.996740	-83.931499
665.144282	-83.332925
665.291889	-82.670346
665.439561	-82.008680
665.587300	-81.396575
665.735103	-80.839848
665.882973	-80.351525
666.030908	-79.919643
666.178909	-79.542528
666.326976	-79.207144
666.475109	-78.915207
666.623307	-78.666415
666.771571	-78.478282
666.919902	-78.370348
667.068298	-78.349326
667.216761	-78.403966
667.365289	-78.526859
667.513884	-78.679731
667.662545	-78.853053
667.811272	-79.049735
667.960065	-79.265575
668.108925	-79.495720
668.257851	-79.746843
668.406843	-79.985621
668.555902	-80.195965
668.705027	-80.334479
668.854219	-80.409391
669.003478	-80.420090
669.152803	-80.409323
669.302195	-80.408272
669.451653	-80.421529
669.601179	-80.454150
669.750771	-80.486781
669.900430	-80.502791
670.050156	-80.480651
670.199949	-80.404296
670.349808	-80.276325
670.499735	-80.108615
670.649729	-79.901008
670.799790	-79.674400
670.949918	-79.432377
671.100114	-79.188566
671.250377	-78.939598
671.400707	-78.702900
671.551104	-78.453431
671.701569	-78.196617
671.852101	-77.924385
672.002700	-77.653778
672.153368	-77.378061
672.304102	-77.115378
672.454905	-76.866730
672.605775	-76.628153
672.756713	-76.401760
672.907718	-76.187620
673.058791	-75.972468
673.209933	-75.757208
673.361142	-75.529949
673.512419	-75.288631
673.663764	-75.041323
673.815177	-74.799847
673.966658	-74.567026
674.118207	-74.342509
674.269825	-74.121656
674.421510	-73.885039
674.573264	-73.640195
674.725086	-73.397333
674.876977	-73.174458
675.028936	-72.984719
675.180963	-72.832529
675.333059	-72.715443
675.485224	-72.634677
675.637457	-72.594157
675.789758	-72.592900
675.942129	-72.631945
676.094568	-72.712849
676.247075	-72.823564
676.399652	-72.971184
676.552298	-73.153668
676.705012	-73.375247
676.857795	-73.632382
677.010648	-73.911822
677.163569	-74.184666
677.316560	-74.435229
677.469619	-74.640767
677.622748	-74.786216
677.775946	-74.864000
677.929214	-74.868763
678.082551	-74.796105
678.235957	-74.653323
678.389432	-74.444929
678.542977	-74.177521
678.696592	-73.867681
678.850276	-73.512096
679.004030	-73.125318
679.157853	-72.725402
679.311746	-72.339535
679.465709	-71.986539
679.619742	-71.680740
679.773844	-71.427519
679.928017	-71.230042
680.082259	-71.090963
680.236571	-71.022515
680.390954	-71.022622
680.545406	-71.095753
680.699929	-71.234176
680.854522	-71.432680
681.009185	-71.682639
681.163918	-71.976352
681.318722	-72.303430
681.473596	-72.645710
681.628540	-72.992369
681.783555	-73.323366
681.938641	-73.635359
682.093797	-73.928253
682.249023	-74.195453
682.404321	-74.430268
682.559689	-74.623157
682.715128	-74.766770
682.870637	-74.861681
683.026218	-74.904840
683.181869	-74.905342
683.337591	-74.869982
683.493385	-74.805122
683.649249	-74.710708
683.805185	-74.582912
683.961191	-74.427233
684.117269	-74.239467
684.273418	-74.036356
684.429639	-73.826784
684.585930	-73.627380
684.742294	-73.449620
684.898728	-73.310236
685.055234	-73.211267
685.211812	-73.153738
685.368461	-73.118088
685.525182	-73.077583
685.681975	-73.004941
685.838839	-72.879544
685.995775	-72.709706
686.152783	-72.507531
686.309863	-72.287910
686.467014	-72.065686
686.624238	-71.868225
686.781534	-71.716788
686.938902	-71.634425
687.096342	-71.631661
687.253854	-71.714998
687.411438	-71.881537
687.569095	-72.134789
687.726824	-72.463845
687.884626	-72.863476
688.042499	-73.316914
688.200446	-73.794107
688.358465	-74.262263
688.516556	-74.688896
688.674720	-75.046944
688.832957	-75.301849
688.991266	-75.447627
689.149649	-75.464827
689.308104	-75.373994
689.466632	-75.167877
689.625233	-74.871963
689.783906	-74.489861
689.942653	-74.055206
690.101473	-73.588703
690.260367	-73.122855
690.419333	-72.687951
690.578372	-72.302402
690.737485	-71.968136
690.896672	-71.679854
691.055931	-71.439431
691.215264	-71.261417
691.374671	-71.158872
691.534151	-71.146645
691.693704	-71.239440
691.853332	-71.438112
692.013033	-71.738106
692.172807	-72.122932
692.332656	-72.588014
692.492578	-73.114845
692.652575	-73.688720
692.812645	-74.276880
692.972789	-74.827576
693.133007	-75.298045
693.293300	-75.633076
693.453666	-75.801591
693.614107	-75.810763
693.774622	-75.688274
693.935211	-75.473093
694.095875	-75.205860
694.256613	-74.904718
694.417426	-74.604744
694.578313	-74.311958
694.739274	-74.038472
694.900311	-73.779652
695.061421	-73.532896
695.222607	-73.307652
695.383868	-73.121033
695.545203	-73.010812
695.706613	-72.999662
695.868098	-73.109194
696.029658	-73.327694
696.191293	-73.645425
696.353003	-74.050716
696.514789	-74.541356
696.676649	-75.108491
696.838585	-75.728707
697.000596	-76.358038
697.162682	-76.946665
697.324844	-77.411161
697.487081	-77.717430
697.649394	-77.833693
697.811782	-77.773119
697.974246	-77.595051
698.136786	-77.342111
698.299401	-77.086801
698.462092	-76.862963
698.624859	-76.676713
698.787702	-76.509561
698.950621	-76.333788
699.113616	-76.135635
699.276686	-75.912475
699.439833	-75.682776
699.603056	-75.485002
699.766355	-75.378009
699.929731	-75.404669
700.093183	-75.594197
700.256711	-75.952525
700.420315	-76.494312
700.583996	-77.242401
700.747754	-78.238526
700.911588	-79.506890
701.075499	-81.035340
701.239486	-82.649618
701.403550	-83.863511
701.567691	-84.016293
701.731909	-83.068171
701.896203	-81.640280
702.060575	-80.170377
702.225024	-78.842301
702.389549	-77.667069
702.554152	-76.635340
702.718832	-75.722365
702.883589	-74.884047
703.048424	-74.087941
703.213335	-73.331097
703.378324	-72.645504
703.543391	-72.076471
703.708535	-71.660493
703.873757	-71.419295
704.039056	-71.348717
704.204433	-71.443109
704.369887	-71.693562
704.535420	-72.116311
704.701030	-72.731473
704.866718	-73.579144
705.032484	-74.705648
705.198328	-76.154256
705.364250	-77.947087
705.530250	-80.032845
705.696328	-81.966528
705.862485	-82.496573
706.028720	-80.878402
706.195033	-78.376394
706.361424	-75.977410
706.527894	-73.892915
706.694442	-72.130130
706.861069	-70.632656
707.027775	-69.352760
707.194559	-68.261511
707.361422	-67.349999
707.528363	-66.620284
707.695384	-66.071816
707.862483	-65.698297
708.029661	-65.490053
708.196918	-65.429197
708.364254	-65.508146
708.531670	-65.714276
708.699164	-66.050958
708.866738	-66.524476
709.034391	-67.145499
709.202123	-67.914532
709.369935	-68.833196
709.537826	-69.909187
709.705796	-71.181933
709.873847	-72.721318
710.041976	-74.643107
710.210186	-76.943855
710.378475	-78.959081
710.546844	-78.728023
710.715292	-76.295442
710.883821	-73.648273
711.052429	-71.420001
711.221118	-69.629861
711.389887	-68.207867
711.558735	-67.095633
711.727664	-66.252876
711.896673	-65.648171
712.065763	-65.248543
712.234932	-65.016864
712.404183	-64.912639
712.573513	-64.907272
712.742924	-64.980977
712.912416	-65.127219
713.081988	-65.342551
713.251641	-65.615163
713.421375	-65.933883
713.591190	-66.307395
713.761085	-66.778010
713.931061	-67.409905
714.101119	-68.270950
714.271257	-69.422991
714.441476	-70.936638
714.611777	-72.872850
714.782159	-75.236852
714.952622	-77.615821
715.123166	-78.317252
715.293792	-76.461574
715.464499	-73.932625
715.635288	-71.793775
715.806158	-70.153450
715.977110	-68.927329
716.148143	-67.995017
716.319259	-67.263029
716.490456	-66.663855
716.661735	-66.161739
716.833096	-65.735112
717.004538	-65.378331
717.176063	-65.086597
717.347670	-64.858706
717.519359	-64.702022
717.691130	-64.638498
717.862984	-64.701106
718.034920	-64.917314
718.206938	-65.294959
718.379039	-65.835468
718.551222	-66.545381
718.723488	-67.442078
718.895836	-68.506547
719.068267	-69.647717
719.240781	-70.620295
719.413377	-71.039695
719.586057	-70.694140
719.758819	-69.792542
719.931664	-68.685525
720.104593	-67.578206
720.277604	-66.538785
720.450699	-65.601656
720.623876	-64.807037
720.797137	-64.174898
720.970482	-63.690923
721.143910	-63.320416
721.317421	-63.039798
721.491016	-62.850979
721.664694	-62.774197
721.838456	-62.838191
722.012302	-63.064056
722.186231	-63.466087
722.360244	-64.045479
722.534342	-64.797605
722.708523	-65.718520
722.882788	-66.796068
723.057137	-67.947280
723.231570	-68.928865
723.406088	-69.367592
723.580689	-69.047238
723.755375	-68.141594
723.930146	-67.002070
724.105000	-65.873654
724.279940	-64.866810
724.454963	-64.013229
724.630072	-63.310719
724.805265	-62.748511
724.980543	-62.307212
725.155905	-61.965045
725.331353	-61.717193
725.506885	-61.581527
725.682503	-61.583555
725.858205	-61.727720
726.033993	-61.999520
726.209865	-62.371547
726.385823	-62.832755
726.561866	-63.382523
726.737995	-64.014372
726.914209	-64.675912
727.090508	-65.276128
727.266893	-65.716389
727.443364	-65.942443
727.619920	-65.979583
727.796562	-65.878670
727.973290	-65.660834
728.150103	-65.309758
728.327003	-64.830144
728.503988	-64.268513
728.681060	-63.693041
728.858218	-63.147229
729.035461	-62.654225
729.212791	-62.228898
