# 2022-03-21_17.19.01
# shape = sech2
# FWHM_ps = 0.1
# carrier_nm = 1542
# frep_MHz = 12126
# pow_mW = 8000
# GDD = 0.0
# propa_len = 0.1288888888888889
# untap_len = 0.01
# taper_len = 0.06888888888888889
# waist_len = 0.02
# uptap_len = 0.02
# untap_scale = 1.0
# waist_scale = 0.2388888888888889
# workingDir = NL_20110305_12 (Spirou)
# axis = slow
# window_ps = 10.0
# steps = 200
# points = 21700
# 
# wavelength [nm]	 power spectral density [dB]
600.043425	-106.523307
600.163550	-106.060027
600.283723	-104.265104
600.403943	-102.162283
600.524212	-100.307109
600.644529	-98.816708
600.764895	-97.664582
600.885308	-96.819838
601.005770	-96.252111
601.126280	-95.929149
601.246839	-95.814312
601.367446	-95.875796
601.488101	-96.083272
601.608804	-96.383345
601.729557	-96.673301
601.850357	-96.825750
601.971206	-96.728783
602.092104	-96.357096
602.213050	-95.762044
602.334045	-95.066436
602.455089	-94.387621
602.576181	-93.799322
602.697322	-93.351803
602.818511	-93.056878
602.939749	-92.898664
603.061036	-92.846752
603.182372	-92.845067
603.303757	-92.836598
603.425191	-92.769945
603.546673	-92.613022
603.668204	-92.365483
603.789785	-92.039695
603.911414	-91.669663
604.033092	-91.300980
604.154820	-90.963277
604.276596	-90.677752
604.398422	-90.458157
604.520297	-90.320392
604.642220	-90.267498
604.764193	-90.284987
604.886216	-90.352269
605.008287	-90.433365
605.130408	-90.477079
605.252578	-90.431494
605.374798	-90.266775
605.497066	-89.985880
605.619385	-89.613784
605.741752	-89.205947
605.864169	-88.818567
605.986636	-88.496608
606.109152	-88.259621
606.231718	-88.113296
606.354333	-88.062730
606.476998	-88.100888
606.599712	-88.217217
606.722476	-88.396981
606.845290	-88.613100
606.968154	-88.833010
607.091067	-89.016910
607.214030	-89.122870
607.337043	-89.114191
607.460106	-88.971041
607.583219	-88.714819
607.706381	-88.384462
607.829594	-88.034079
607.952856	-87.714498
608.076169	-87.459248
608.199531	-87.288604
608.322944	-87.206494
608.446407	-87.211122
608.569920	-87.300198
608.693483	-87.457867
608.817096	-87.659741
608.940759	-87.877423
609.064473	-88.084015
609.188237	-88.259355
609.312051	-88.388036
609.435916	-88.472852
609.559831	-88.511121
609.683796	-88.511218
609.807812	-88.508050
609.931878	-88.518605
610.055995	-88.554209
610.180162	-88.622426
610.304380	-88.734587
610.428648	-88.899552
610.552967	-89.104432
610.677337	-89.336600
610.801757	-89.584003
610.926228	-89.828690
611.050750	-90.050629
611.175323	-90.235891
611.299946	-90.377729
611.424620	-90.468346
611.549345	-90.512933
611.674121	-90.534868
611.798948	-90.552888
611.923826	-90.584433
612.048755	-90.645496
612.173734	-90.747794
612.298765	-90.903330
612.423847	-91.093700
612.548980	-91.303361
612.674165	-91.513107
612.799400	-91.693772
612.924687	-91.835141
613.050025	-91.916629
613.175414	-91.931203
613.300854	-91.890879
613.426346	-91.809724
613.551889	-91.715379
613.677484	-91.628377
613.803130	-91.563601
613.928827	-91.546979
614.054576	-91.581051
614.180377	-91.673458
614.306229	-91.832365
614.432132	-92.050102
614.558087	-92.305574
614.684094	-92.563222
614.810153	-92.785300
614.936263	-92.930665
615.062425	-92.953004
615.188639	-92.824914
615.314904	-92.552594
615.441222	-92.152093
615.567591	-91.670104
615.694012	-91.140309
615.820486	-90.602377
615.947011	-90.088560
616.073588	-89.612088
616.200217	-89.193594
616.326898	-88.842765
616.453632	-88.560374
616.580417	-88.348108
616.707255	-88.197469
616.834144	-88.107247
616.961086	-88.077354
617.088081	-88.087547
617.215127	-88.118410
617.342226	-88.133851
617.469378	-88.095095
617.596581	-87.976318
617.723837	-87.758537
617.851146	-87.446900
617.978507	-87.067429
618.105920	-86.652012
618.233386	-86.237671
618.360905	-85.848456
618.488476	-85.506687
618.616100	-85.228275
618.743777	-85.017533
618.871506	-84.873288
618.999288	-84.786232
619.127123	-84.749465
619.255011	-84.756086
619.382951	-84.792069
619.510945	-84.845211
619.638991	-84.903535
619.767090	-84.950241
619.895243	-84.962036
620.023448	-84.917841
620.151706	-84.815695
620.280017	-84.663107
620.408382	-84.472037
620.536799	-84.260091
620.665270	-84.050956
620.793794	-83.865253
620.922371	-83.714426
621.051002	-83.607108
621.179686	-83.546840
621.308423	-83.541560
621.437213	-83.588009
621.566057	-83.678068
621.694954	-83.800415
621.823905	-83.944989
621.952909	-84.099238
622.081967	-84.250087
622.211079	-84.378669
622.340244	-84.474425
622.469462	-84.530547
622.598735	-84.551560
622.728061	-84.543425
622.857441	-84.516242
622.986874	-84.490960
623.116361	-84.481533
623.245903	-84.495243
623.375498	-84.539105
623.505147	-84.616437
623.634850	-84.726487
623.764606	-84.863398
623.894417	-85.023664
624.024282	-85.203476
624.154201	-85.394676
624.284174	-85.582707
624.414202	-85.752105
624.544283	-85.893668
624.674419	-85.998510
624.804609	-86.063171
624.934853	-86.095905
625.065151	-86.111482
625.195504	-86.129613
625.325911	-86.171200
625.456373	-86.251426
625.586889	-86.389254
625.717460	-86.583010
625.848085	-86.821020
625.978764	-87.103806
626.109498	-87.425109
626.240287	-87.778577
626.371131	-88.153900
626.502029	-88.538622
626.632982	-88.925952
626.763989	-89.288307
626.895052	-89.607756
627.026169	-89.884125
627.157341	-90.101249
627.288568	-90.256314
627.419850	-90.352068
627.551187	-90.407556
627.682579	-90.442936
627.814026	-90.463098
627.945528	-90.474870
628.077085	-90.483394
628.208697	-90.489585
628.340364	-90.488657
628.472087	-90.457262
628.603865	-90.381148
628.735698	-90.265163
628.867586	-90.115055
628.999530	-89.929232
629.131529	-89.703620
629.263584	-89.444286
629.395694	-89.155908
629.527859	-88.836956
629.660080	-88.489379
629.792357	-88.120709
629.924689	-87.732958
630.057077	-87.318940
630.189520	-86.883304
630.322019	-86.447288
630.454574	-86.019471
630.587184	-85.602259
630.719851	-85.202384
630.852573	-84.823699
630.985351	-84.472404
631.118185	-84.144593
631.251075	-83.833531
631.384021	-83.538068
631.517023	-83.252663
631.650081	-82.978532
631.783195	-82.717233
631.916365	-82.470082
632.049592	-82.234173
632.182874	-82.006978
632.316213	-81.792321
632.449608	-81.589213
632.583059	-81.398593
632.716567	-81.217388
632.850131	-81.041579
632.983751	-80.874340
633.117428	-80.711437
633.251161	-80.550483
633.384951	-80.392627
633.518797	-80.239394
633.652700	-80.095684
633.786660	-79.962928
633.920676	-79.841575
634.054749	-79.732371
634.188879	-79.636179
634.323065	-79.556230
634.457308	-79.490630
634.591608	-79.437139
634.725965	-79.397307
634.860379	-79.371636
634.994850	-79.362351
635.129377	-79.367232
635.263962	-79.386041
635.398604	-79.419840
635.533303	-79.462278
635.668058	-79.505617
635.802872	-79.545981
635.937742	-79.580018
636.072669	-79.609779
636.207654	-79.634006
636.342696	-79.656540
636.477796	-79.681888
636.612953	-79.712456
636.748167	-79.749461
636.883439	-79.794018
637.018768	-79.851613
637.154155	-79.919814
637.289599	-79.997981
637.425101	-80.089601
637.560660	-80.196243
637.696277	-80.322792
637.831952	-80.469141
637.967685	-80.627517
638.103475	-80.795808
638.239324	-80.967821
638.375230	-81.140847
638.511194	-81.317282
638.647215	-81.496530
638.783295	-81.675755
638.919433	-81.849791
639.055629	-82.016817
639.191883	-82.182269
639.328195	-82.332954
639.464565	-82.469442
639.600994	-82.596687
639.737481	-82.720862
639.874025	-82.859891
640.010629	-83.018008
640.147290	-83.203123
640.284010	-83.430243
640.420789	-83.697333
640.557625	-84.002328
640.694521	-84.333629
640.831474	-84.677501
640.968487	-85.034764
641.105558	-85.395368
641.242687	-85.753933
641.379876	-86.109894
641.517123	-86.445158
641.654429	-86.749037
641.791793	-87.005234
641.929216	-87.200135
642.066699	-87.325527
642.204240	-87.354927
642.341840	-87.299693
642.479499	-87.175797
642.617217	-86.988727
642.754994	-86.765349
642.892830	-86.516691
643.030726	-86.252243
643.168680	-85.982966
643.306694	-85.701549
643.444767	-85.419834
643.582899	-85.150683
643.721091	-84.890142
643.859342	-84.651254
643.997652	-84.446447
644.136022	-84.274166
644.274451	-84.129413
644.412940	-83.998847
644.551488	-83.866198
644.690096	-83.714159
644.828763	-83.533927
644.967490	-83.322340
645.106277	-83.076343
645.245124	-82.803914
645.384030	-82.520163
645.522997	-82.238352
645.662023	-81.964678
645.801109	-81.702754
645.940255	-81.458866
646.079460	-81.236571
646.218726	-81.042189
646.358052	-80.879566
646.497438	-80.757984
646.636884	-80.673000
646.776391	-80.616251
646.915957	-80.585931
647.055584	-80.568705
647.195271	-80.545145
647.335019	-80.510487
647.474826	-80.462280
647.614695	-80.406919
647.754623	-80.350984
647.894612	-80.303260
648.034662	-80.278446
648.174772	-80.280026
648.314943	-80.312159
648.455174	-80.376738
648.595466	-80.467306
648.735819	-80.582310
648.876233	-80.716328
649.016707	-80.861776
649.157242	-81.017240
649.297838	-81.173033
649.438495	-81.323832
649.579213	-81.463644
649.719992	-81.586252
649.860832	-81.695739
650.001733	-81.801432
650.142695	-81.918196
650.283718	-82.070999
650.424803	-82.274554
650.565949	-82.540601
650.707156	-82.888372
650.848424	-83.320781
650.989754	-83.836292
651.131145	-84.424273
651.272597	-85.059329
651.414111	-85.720708
651.555687	-86.375045
651.697324	-86.976622
651.839022	-87.506310
651.980782	-87.950177
652.122604	-88.307996
652.264488	-88.613438
652.406433	-88.901153
652.548441	-89.219164
652.690510	-89.606124
652.832640	-90.082597
652.974833	-90.667701
653.117088	-91.352288
653.259405	-92.129264
653.401784	-92.993711
653.544224	-93.894173
653.686727	-94.778131
653.829293	-95.616806
653.971920	-96.386578
654.114609	-97.078077
654.257361	-97.686459
654.400175	-98.193533
654.543052	-98.619011
654.685991	-99.005195
654.828992	-99.352857
654.972056	-99.674879
655.115183	-100.016530
655.258372	-100.378324
655.401623	-100.773470
655.544937	-101.178043
655.688314	-101.501784
655.831754	-101.558640
655.975256	-101.172860
656.118822	-100.252351
656.262450	-98.985030
656.406141	-97.637196
656.549894	-96.325216
656.693711	-95.156935
656.837591	-94.162947
656.981534	-93.334609
657.125540	-92.673005
657.269610	-92.150971
657.413742	-91.761219
657.557938	-91.505867
657.702196	-91.352908
657.846519	-91.282578
657.990904	-91.262079
658.135353	-91.232959
658.279866	-91.188959
658.424441	-91.122727
658.569081	-91.037153
658.713784	-90.966228
658.858550	-90.933718
659.003381	-90.990884
659.148274	-91.184522
659.293232	-91.505633
659.438253	-91.972226
659.583339	-92.600118
659.728488	-93.390107
659.873701	-94.335907
660.018978	-95.330182
660.164318	-96.184533
660.309723	-96.732254
660.455192	-96.841927
660.600725	-96.564409
660.746323	-96.091027
660.891984	-95.612481
661.037710	-95.256636
661.183500	-95.033810
661.329354	-94.858946
661.475272	-94.604349
661.621255	-94.129481
661.767303	-93.353223
661.913415	-92.346818
662.059591	-91.225528
662.205833	-90.124262
662.352138	-89.110789
662.498509	-88.198616
662.644944	-87.401805
662.791443	-86.716015
662.938008	-86.127225
663.084638	-85.635824
663.231332	-85.236845
663.378091	-84.923867
663.524915	-84.670028
663.671804	-84.439657
663.818759	-84.221202
663.965778	-83.993197
664.112863	-83.753552
664.260012	-83.515999
664.407227	-83.295148
664.554507	-83.131054
664.701853	-83.044784
664.849264	-83.034652
664.996740	-83.107401
665.144282	-83.253051
665.291889	-83.459887
665.439561	-83.711942
665.587300	-83.986538
665.735103	-84.282507
665.882973	-84.581786
666.030908	-84.847671
666.178909	-85.074569
666.326976	-85.242200
666.475109	-85.341891
666.623307	-85.377961
666.771571	-85.344600
666.919902	-85.270227
667.068298	-85.174799
667.216761	-85.052670
667.365289	-84.924824
667.513884	-84.798197
667.662545	-84.657000
667.811272	-84.496041
667.960065	-84.295152
668.108925	-84.040374
668.257851	-83.722880
668.406843	-83.342350
668.555902	-82.925990
668.705027	-82.493721
668.854219	-82.068557
669.003478	-81.665506
669.152803	-81.294845
669.302195	-80.961481
669.451653	-80.665226
669.601179	-80.393495
669.750771	-80.136350
669.900430	-79.884996
670.050156	-79.637675
670.199949	-79.389605
670.349808	-79.135565
670.499735	-78.885110
670.649729	-78.647915
670.799790	-78.426919
670.949918	-78.224042
671.100114	-78.033303
671.250377	-77.854212
671.400707	-77.688831
671.551104	-77.527659
671.701569	-77.372207
671.852101	-77.228922
672.002700	-77.097142
672.153368	-76.981314
672.304102	-76.882266
672.454905	-76.796549
672.605775	-76.733214
672.756713	-76.694682
672.907718	-76.676884
673.058791	-76.677722
673.209933	-76.695299
673.361142	-76.727699
673.512419	-76.773701
673.663764	-76.830881
673.815177	-76.901703
673.966658	-76.993332
674.118207	-77.110330
674.269825	-77.251373
674.421510	-77.416537
674.573264	-77.607176
674.725086	-77.818371
674.876977	-78.044883
675.028936	-78.280071
675.180963	-78.516771
675.333059	-78.758984
675.485224	-78.991718
675.637457	-79.209899
675.789758	-79.418322
675.942129	-79.604398
676.094568	-79.764885
676.247075	-79.890856
676.399652	-79.971402
676.552298	-80.006735
676.705012	-79.991511
676.857795	-79.923071
677.010648	-79.808852
677.163569	-79.649020
677.316560	-79.452320
677.469619	-79.222937
677.622748	-78.954862
677.775946	-78.651871
677.929214	-78.307626
678.082551	-77.920312
678.235957	-77.503473
678.389432	-77.076156
678.542977	-76.657265
678.696592	-76.267513
678.850276	-75.910473
679.004030	-75.591111
679.157853	-75.307615
679.311746	-75.050422
679.465709	-74.818078
679.619742	-74.604914
679.773844	-74.409710
679.928017	-74.231922
680.082259	-74.066990
680.236571	-73.915328
680.390954	-73.780580
680.545406	-73.668752
680.699929	-73.592740
680.854522	-73.563341
681.009185	-73.586225
681.163918	-73.662458
681.318722	-73.787592
681.473596	-73.950782
681.628540	-74.138278
681.783555	-74.337349
681.938641	-74.540588
682.093797	-74.749504
682.249023	-74.971470
682.404321	-75.217009
682.559689	-75.494037
682.715128	-75.810023
682.870637	-76.165929
683.026218	-76.559568
683.181869	-76.982794
683.337591	-77.420125
683.493385	-77.852022
683.649249	-78.263898
683.805185	-78.633436
683.961191	-78.939840
684.117269	-79.173488
684.273418	-79.336282
684.429639	-79.427631
684.585930	-79.457497
684.742294	-79.425171
684.898728	-79.331543
685.055234	-79.171571
685.211812	-78.938215
685.368461	-78.639704
685.525182	-78.287370
685.681975	-77.892660
685.838839	-77.471001
685.995775	-77.034224
686.152783	-76.587998
686.309863	-76.136717
686.467014	-75.681512
686.624238	-75.227577
686.781534	-74.785699
686.938902	-74.367651
687.096342	-73.983874
687.253854	-73.640886
687.411438	-73.344348
687.569095	-73.093722
687.726824	-72.885314
687.884626	-72.718021
688.042499	-72.586459
688.200446	-72.482453
688.358465	-72.403020
688.516556	-72.340609
688.674720	-72.299710
688.832957	-72.289453
688.991266	-72.321300
689.149649	-72.414098
689.308104	-72.579084
689.466632	-72.823420
689.625233	-73.148150
689.783906	-73.544187
689.942653	-73.994408
690.101473	-74.480906
690.260367	-74.990421
690.419333	-75.516502
690.578372	-76.063465
690.737485	-76.644372
690.896672	-77.273689
691.055931	-77.954445
691.215264	-78.672974
691.374671	-79.384638
691.534151	-80.014406
691.693704	-80.468587
691.853332	-80.655973
692.013033	-80.529463
692.172807	-80.112835
692.332656	-79.465568
692.492578	-78.662413
692.652575	-77.785272
692.812645	-76.888947
692.972789	-76.032439
693.133007	-75.249058
693.293300	-74.553338
693.453666	-73.946188
693.614107	-73.413406
693.774622	-72.941314
693.935211	-72.512438
694.095875	-72.110331
694.256613	-71.729615
694.417426	-71.371334
694.578313	-71.047255
694.739274	-70.769034
694.900311	-70.544181
695.061421	-70.377471
695.222607	-70.266427
695.383868	-70.203678
695.545203	-70.185368
695.706613	-70.203939
695.868098	-70.259266
696.029658	-70.360215
696.191293	-70.514310
696.353003	-70.734768
696.514789	-71.032908
696.676649	-71.411665
696.838585	-71.870086
697.000596	-72.398168
697.162682	-72.983085
697.324844	-73.623450
697.487081	-74.323834
697.649394	-75.104239
697.811782	-75.995839
697.974246	-77.024300
698.136786	-78.198377
698.299401	-79.465741
698.462092	-80.680169
698.624859	-81.601484
698.787702	-82.009766
698.950621	-81.893961
699.113616	-81.409417
699.276686	-80.718222
699.439833	-79.908517
699.603056	-78.999664
699.766355	-78.014254
699.929731	-76.990393
700.093183	-75.980980
700.256711	-75.037011
700.420315	-74.179878
700.583996	-73.410025
700.747754	-72.703135
700.911588	-72.030086
701.075499	-71.374614
701.239486	-70.730355
701.403550	-70.110908
701.567691	-69.533243
701.731909	-69.011735
701.896203	-68.563793
702.060575	-68.193504
702.225024	-67.898766
702.389549	-67.676004
702.554152	-67.514411
702.718832	-67.409298
702.883589	-67.358540
703.048424	-67.362333
703.213335	-67.426926
703.378324	-67.560634
703.543391	-67.772223
703.708535	-68.069546
703.873757	-68.452164
704.039056	-68.913617
704.204433	-69.437338
704.369887	-70.004765
704.535420	-70.601920
704.701030	-71.211883
704.866718	-71.811158
705.032484	-72.363810
705.198328	-72.809741
705.364250	-73.087920
705.530250	-73.157467
705.696328	-73.022851
705.862485	-72.739000
706.028720	-72.372909
706.195033	-71.972744
706.361424	-71.554485
706.527894	-71.125218
706.694442	-70.690174
706.861069	-70.259146
707.027775	-69.851147
707.194559	-69.482704
707.361422	-69.160231
707.528363	-68.880340
707.695384	-68.626510
707.862483	-68.379572
708.029661	-68.126793
708.196918	-67.869357
708.364254	-67.623610
708.531670	-67.411926
708.699164	-67.250079
708.866738	-67.144831
709.034391	-67.089374
709.202123	-67.066074
709.369935	-67.059269
709.537826	-67.063561
709.705796	-67.079954
709.873847	-67.119529
710.041976	-67.188709
710.210186	-67.286660
710.378475	-67.404752
710.546844	-67.522093
710.715292	-67.613554
710.883821	-67.656065
711.052429	-67.633406
711.221118	-67.548868
711.389887	-67.414477
711.558735	-67.244813
711.727664	-67.054916
711.896673	-66.849520
712.065763	-66.634508
712.234932	-66.413787
712.404183	-66.188884
712.573513	-65.970037
712.742924	-65.767513
712.912416	-65.588332
713.081988	-65.438878
713.251641	-65.314527
713.421375	-65.211145
713.591190	-65.127420
713.761085	-65.057876
713.931061	-65.005943
714.101119	-64.973891
714.271257	-64.962409
714.441476	-64.977305
714.611777	-65.016967
714.782159	-65.080796
714.952622	-65.171553
715.123166	-65.290002
715.293792	-65.443999
715.464499	-65.646032
715.635288	-65.906716
715.806158	-66.234312
715.977110	-66.629393
716.148143	-67.077710
716.319259	-67.564523
716.490456	-68.068072
716.661735	-68.563896
716.833096	-69.024028
717.004538	-69.382607
717.176063	-69.550286
717.347670	-69.441086
717.519359	-69.022760
717.691130	-68.358432
717.862984	-67.547864
718.034920	-66.691310
718.206938	-65.858030
718.379039	-65.077436
718.551222	-64.364719
718.723488	-63.720520
718.895836	-63.144157
719.068267	-62.640339
719.240781	-62.213177
719.413377	-61.865290
719.586057	-61.600581
719.758819	-61.413854
719.931664	-61.298554
720.104593	-61.247714
720.277604	-61.253421
720.450699	-61.314533
720.623876	-61.432666
720.797137	-61.611891
720.970482	-61.858015
721.143910	-62.169678
721.317421	-62.542283
721.491016	-62.967488
721.664694	-63.440841
721.838456	-63.971613
722.012302	-64.573051
722.186231	-65.264735
722.360244	-66.053626
722.534342	-66.926989
722.708523	-67.849365
722.882788	-68.750338
723.057137	-69.534453
723.231570	-70.071852
723.406088	-70.227883
723.580689	-69.917161
723.755375	-69.174203
723.930146	-68.159809
724.105000	-67.051863
724.279940	-65.984025
724.454963	-65.022506
724.630072	-64.186174
724.805265	-63.470764
724.980543	-62.857501
725.155905	-62.330838
725.331353	-61.883023
725.506885	-61.513353
725.682503	-61.225455
725.858205	-61.021615
726.033993	-60.899419
726.209865	-60.851585
726.385823	-60.866506
726.561866	-60.932945
726.737995	-61.043669
726.914209	-61.200371
727.090508	-61.412419
727.266893	-61.691282
727.443364	-62.045645
727.619920	-62.481780
727.796562	-62.997976
727.973290	-63.591382
728.150103	-64.266920
728.327003	-65.037050
728.503988	-65.923662
728.681060	-66.931739
728.858218	-68.016792
729.035461	-69.041079
729.212791	-69.749756
729.390208	-69.885632
