# 2022-03-22_08.40.33
# shape = sech2
# FWHM_ps = 0.11
# carrier_nm = 1542
# frep_MHz = 12126
# pow_mW = 8000
# GDD = 0.0
# propa_len = 0.098
# untap_len = 0.01
# taper_len = 0.038
# waist_len = 0.02
# uptap_len = 0.02
# untap_scale = 1.0
# waist_scale = 0.368421052631579
# workingDir = NL_20110305_12 (Spirou)
# axis = slow
# window_ps = 10.0
# steps = 200
# points = 21700
# 
# wavelength [nm]	 power spectral density [dB]
600.043425	-145.586892
600.163550	-144.819852
600.283723	-144.216996
600.403943	-143.767854
600.524212	-143.460807
600.644529	-143.281726
600.764895	-143.213879
600.885308	-143.237581
601.005770	-143.329903
601.126280	-143.464883
601.246839	-143.614852
601.367446	-143.753420
601.488101	-143.860092
601.608804	-143.925347
601.729557	-143.954005
601.850357	-143.965142
601.971206	-143.988654
602.092104	-144.060336
602.213050	-144.217497
602.334045	-144.495903
602.455089	-144.927337
602.576181	-145.535385
602.697322	-146.324268
602.818511	-147.249839
602.939749	-148.158546
603.061036	-148.723776
603.182372	-148.567611
603.303757	-147.648874
603.425191	-146.316996
603.546673	-144.926401
603.668204	-143.658540
603.789785	-142.572413
603.911414	-141.671571
604.033092	-140.938629
604.154820	-140.349702
604.276596	-139.880585
604.398422	-139.510159
604.520297	-139.222900
604.642220	-139.010819
604.764193	-138.874509
604.886216	-138.823020
605.008287	-138.872685
605.130408	-139.045359
605.252578	-139.366529
605.374798	-139.863319
605.497066	-140.561284
605.619385	-141.476329
605.741752	-142.591876
605.864169	-143.799992
605.986636	-144.795917
606.109152	-145.082939
606.231718	-144.418663
606.354333	-143.149339
606.476998	-141.749808
606.599712	-140.473020
606.722476	-139.398170
606.845290	-138.529665
606.968154	-137.846079
607.091067	-137.318509
607.214030	-136.917059
607.337043	-136.613556
607.460106	-136.383364
607.583219	-136.207085
607.706381	-136.071933
607.829594	-135.972258
607.952856	-135.908911
608.076169	-135.887520
608.199531	-135.916161
608.322944	-136.003030
608.446407	-136.154478
608.569920	-136.373560
608.693483	-136.659004
608.817096	-137.004582
608.940759	-137.398950
609.064473	-137.826239
609.188237	-138.267832
609.312051	-138.705566
609.435916	-139.125927
609.559831	-139.523878
609.683796	-139.904342
609.807812	-140.279923
609.931878	-140.664685
610.055995	-141.064747
610.180162	-141.466359
610.304380	-141.822965
610.428648	-142.048152
610.552967	-142.031664
610.677337	-141.692105
610.801757	-141.035416
610.926228	-140.155456
611.050750	-139.176551
611.175323	-138.201527
611.299946	-137.295875
611.424620	-136.494052
611.549345	-135.810299
611.674121	-135.247019
611.798948	-134.800043
611.923826	-134.461728
612.048755	-134.222822
612.173734	-134.073695
612.298765	-134.005191
612.423847	-134.009211
612.548980	-134.078991
612.674165	-134.209017
612.799400	-134.394487
612.924687	-134.630289
613.050025	-134.909558
613.175414	-135.222002
613.300854	-135.552365
613.426346	-135.879683
613.551889	-136.178164
613.677484	-136.420439
613.803130	-136.583007
613.928827	-136.652105
614.054576	-136.627154
614.180377	-136.519928
614.306229	-136.350241
614.432132	-136.140822
614.558087	-135.913686
614.684094	-135.688658
614.810153	-135.483392
614.936263	-135.313877
615.062425	-135.194682
615.188639	-135.138685
615.314904	-135.156311
615.441222	-135.254353
615.567591	-135.434417
615.694012	-135.690940
615.820486	-136.008797
615.947011	-136.360926
616.073588	-136.707317
616.200217	-136.997989
616.326898	-137.182632
616.453632	-137.225852
616.580417	-137.120204
616.707255	-136.887284
616.834144	-136.565956
616.961086	-136.196730
617.088081	-135.811255
617.215127	-135.429182
617.342226	-135.060000
617.469378	-134.706876
617.596581	-134.370438
617.723837	-134.051481
617.851146	-133.752145
617.978507	-133.475639
618.105920	-133.224926
618.233386	-133.000970
618.360905	-132.801156
618.488476	-132.618336
618.616100	-132.440925
618.743777	-132.254404
618.871506	-132.044291
618.999288	-131.800116
619.127123	-131.519146
619.255011	-131.208358
619.382951	-130.883789
619.510945	-130.567672
619.638991	-130.284728
619.767090	-130.058913
619.895243	-129.911252
620.023448	-129.858681
620.151706	-129.913462
620.280017	-130.082636
620.408382	-130.367005
620.536799	-130.759171
620.665270	-131.240206
620.793794	-131.774907
620.922371	-132.307020
621.051002	-132.758993
621.179686	-133.043991
621.308423	-133.093699
621.437213	-132.887850
621.566057	-132.459868
621.694954	-131.873585
621.823905	-131.194008
621.952909	-130.471797
622.081967	-129.741774
622.211079	-129.027410
622.340244	-128.345494
622.469462	-127.709020
622.598735	-127.128434
622.728061	-126.611927
622.857441	-126.165378
622.986874	-125.792236
623.116361	-125.493490
623.245903	-125.267729
623.375498	-125.111298
623.505147	-125.018585
623.634850	-124.982469
623.764606	-124.994994
623.894417	-125.048260
624.024282	-125.135434
624.154201	-125.251693
624.284174	-125.394835
624.414202	-125.565283
624.544283	-125.765302
624.674419	-125.997389
624.804609	-126.261950
624.934853	-126.554467
625.065151	-126.862585
625.195504	-127.163927
625.325911	-127.426210
625.456373	-127.611743
625.586889	-127.687241
625.717460	-127.636051
625.848085	-127.465749
625.978764	-127.205607
626.109498	-126.895838
626.240287	-126.575813
626.371131	-126.276637
626.502029	-126.018869
626.632982	-125.813554
626.763989	-125.664695
626.895052	-125.572041
627.026169	-125.533692
627.157341	-125.548280
627.288568	-125.616547
627.419850	-125.742180
627.551187	-125.931868
627.682579	-126.194712
627.814026	-126.541213
627.945528	-126.982039
628.077085	-127.526623
628.208697	-128.181388
628.340364	-128.947043
628.472087	-129.813901
628.603865	-130.753758
628.735698	-131.707663
628.867586	-132.574031
628.999530	-133.214808
629.131529	-133.505324
629.263584	-133.412212
629.395694	-133.017789
629.527859	-132.459433
629.660080	-131.859281
629.792357	-131.298827
629.924689	-130.825223
630.057077	-130.464429
630.189520	-130.230818
630.322019	-130.131921
630.454574	-130.169137
630.587184	-130.334729
630.719851	-130.604483
630.852573	-130.925502
630.985351	-131.202822
631.118185	-131.301594
631.251075	-131.092897
631.384021	-130.535030
631.517023	-129.707526
631.650081	-128.752712
631.783195	-127.798931
631.916365	-126.929916
632.049592	-126.190076
632.182874	-125.598667
632.316213	-125.161066
632.449608	-124.875730
632.583059	-124.738217
632.716567	-124.743642
632.850131	-124.888414
632.983751	-125.171704
633.117428	-125.596815
633.251161	-126.172448
633.384951	-126.913648
633.518797	-127.841892
633.652700	-128.982654
633.786660	-130.355256
633.920676	-131.938883
634.054749	-133.575286
634.188879	-134.796692
634.323065	-134.950287
634.457308	-134.021248
634.591608	-132.664879
634.725965	-131.374474
634.860379	-130.326750
634.994850	-129.552746
635.129377	-129.037996
635.263962	-128.757084
635.398604	-128.683135
635.533303	-128.789142
635.668058	-129.046530
635.802872	-129.422490
635.937742	-129.876472
636.072669	-130.356281
636.207654	-130.795505
636.342696	-131.116324
636.477796	-131.243076
636.612953	-131.126291
636.748167	-130.763614
636.883439	-130.199608
637.018768	-129.504226
637.154155	-128.747939
637.289599	-127.987469
637.425101	-127.262653
637.560660	-126.598952
637.696277	-126.011354
637.831952	-125.507783
637.967685	-125.091580
638.103475	-124.763128
638.239324	-124.520830
638.375230	-124.361633
638.511194	-124.281326
638.647215	-124.274799
638.783295	-124.336475
638.919433	-124.461005
639.055629	-124.644251
639.191883	-124.884396
639.328195	-125.182914
639.464565	-125.545095
639.600994	-125.979893
639.737481	-126.499088
639.874025	-127.115832
640.010629	-127.842662
640.147290	-128.688812
640.284010	-129.656317
640.420789	-130.733992
640.557625	-131.888246
640.694521	-133.050949
640.831474	-134.109769
640.968487	-134.916480
641.105558	-135.331044
641.242687	-135.286669
641.379876	-134.818869
641.517123	-134.034045
641.654429	-133.059354
641.791793	-132.010614
641.929216	-130.979690
642.066699	-130.032841
642.204240	-129.214361
642.341840	-128.551918
642.479499	-128.061444
642.617217	-127.750642
642.754994	-127.620994
642.892830	-127.668475
643.030726	-127.883256
643.168680	-128.248886
643.306694	-128.741827
643.444767	-129.332948
643.582899	-129.993087
643.721091	-130.703665
643.859342	-131.469714
643.997652	-132.328739
644.136022	-133.349282
644.274451	-134.615803
644.412940	-136.183892
644.551488	-137.924578
644.690096	-139.115893
644.828763	-138.608274
644.967490	-136.734630
645.106277	-134.691014
645.245124	-132.987877
645.384030	-131.705276
645.522997	-130.814857
645.662023	-130.272929
645.801109	-130.037423
645.940255	-130.065528
646.079460	-130.305237
646.218726	-130.683646
646.358052	-131.095363
646.497438	-131.402083
646.636884	-131.461934
646.776391	-131.189003
646.915957	-130.594674
647.055584	-129.764946
647.195271	-128.804385
647.335019	-127.800664
647.474826	-126.818060
647.614695	-125.902731
647.754623	-125.088368
647.894612	-124.399701
648.034662	-123.854605
648.174772	-123.465638
648.314943	-123.241366
648.455174	-123.187486
648.595466	-123.307633
648.735819	-123.603690
648.876233	-124.075275
649.016707	-124.717668
649.157242	-125.516588
649.297838	-126.436541
649.438495	-127.398091
649.579213	-128.245793
649.719992	-128.743344
649.860832	-128.678278
650.001733	-128.042256
650.142695	-127.038376
650.283718	-125.903434
650.424803	-124.795549
650.565949	-123.795142
650.707156	-122.936994
650.848424	-122.233741
650.989754	-121.688098
651.131145	-121.298507
651.272597	-121.061637
651.414111	-120.973488
651.555687	-121.029892
651.697324	-121.226787
651.839022	-121.560513
651.980782	-122.028273
652.122604	-122.628962
652.264488	-123.364485
652.406433	-124.241755
652.548441	-125.275579
652.690510	-126.492837
652.832640	-127.938915
652.974833	-129.688622
653.117088	-131.866399
653.259405	-134.681584
653.401784	-138.421617
653.544224	-142.347153
653.686727	-141.166188
653.829293	-137.271388
653.971920	-134.235157
654.114609	-132.009887
654.257361	-130.324774
654.400175	-129.011112
654.543052	-127.969448
654.685991	-127.141101
654.828992	-126.493241
654.972056	-126.010962
655.115183	-125.692505
655.258372	-125.545769
655.401623	-125.585041
655.544937	-125.826696
655.688314	-126.280906
655.831754	-126.931993
655.975256	-127.692086
656.118822	-128.318840
656.262450	-128.394598
656.406141	-127.627877
656.549894	-126.215949
656.693711	-124.586520
656.837591	-123.024016
656.981534	-121.641850
657.125540	-120.467096
657.269610	-119.495108
657.413742	-118.713067
657.557938	-118.109070
657.702196	-117.675568
657.846519	-117.410704
657.990904	-117.318966
658.135353	-117.411768
658.279866	-117.708427
658.424441	-118.238060
658.569081	-119.043227
658.713784	-120.186652
658.858550	-121.762722
659.003381	-123.910951
659.148274	-126.773923
659.293232	-129.871155
659.438253	-130.051767
659.583339	-127.020065
659.728488	-124.079536
659.873701	-121.843652
660.018978	-120.176331
660.164318	-118.932752
660.309723	-118.016453
660.455192	-117.367288
660.600725	-116.950190
660.746323	-116.748745
660.891984	-116.762089
661.037710	-117.004273
661.183500	-117.506281
661.329354	-118.322304
661.475272	-119.544836
661.621255	-121.341742
661.767303	-124.060974
661.913415	-128.613975
662.059591	-137.898921
662.205833	-132.031308
662.352138	-125.340469
662.498509	-121.554776
662.644944	-119.014811
662.791443	-117.183220
662.938008	-115.824790
663.084638	-114.816317
663.231332	-114.085887
663.378091	-113.588889
663.524915	-113.297173
663.671804	-113.193676
663.818759	-113.269477
663.965778	-113.521761
664.112863	-113.951481
664.260012	-114.559065
664.407227	-115.334923
664.554507	-116.238360
664.701853	-117.156689
664.849264	-117.856962
664.996740	-118.027105
665.144282	-117.515854
665.291889	-116.502268
665.439561	-115.297355
665.587300	-114.119830
665.735103	-113.070498
665.882973	-112.181730
666.030908	-111.455779
666.178909	-110.883902
666.326976	-110.454758
666.475109	-110.158042
666.623307	-109.986193
666.771571	-109.935359
666.919902	-110.006114
667.068298	-110.204136
667.216761	-110.541002
667.365289	-111.035343
667.513884	-111.714777
667.662545	-112.619440
667.811272	-113.808734
667.960065	-115.374722
668.108925	-117.469651
668.257851	-120.359578
668.406843	-124.423907
668.555902	-128.154369
668.705027	-125.236067
668.854219	-121.162986
669.003478	-118.300366
669.152803	-116.299387
669.302195	-114.878988
669.451653	-113.882563
669.601179	-113.221197
669.750771	-112.843710
669.900430	-112.722449
670.050156	-112.846671
670.199949	-113.220014
670.349808	-113.860914
670.499735	-114.806411
670.649729	-116.121769
670.799790	-117.922990
670.949918	-120.433871
671.100114	-124.157797
671.250377	-130.493660
671.400707	-135.266174
671.551104	-127.310034
671.701569	-122.878896
671.852101	-120.167422
672.002700	-118.344242
672.153368	-117.076103
672.304102	-116.200905
672.454905	-115.630175
672.605775	-115.312768
672.756713	-115.218907
672.907718	-115.332269
673.058791	-115.645754
673.209933	-116.159144
673.361142	-116.877731
673.512419	-117.810963
673.663764	-118.968959
673.815177	-120.350501
673.966658	-121.903294
674.118207	-123.413865
674.269825	-124.344687
674.421510	-124.078482
674.573264	-122.747346
674.725086	-121.025152
674.876977	-119.352705
675.028936	-117.884983
675.180963	-116.657434
675.333059	-115.670471
675.485224	-114.917244
675.637457	-114.391131
675.789758	-114.087157
675.942129	-114.001913
676.094568	-114.133371
676.247075	-114.481151
676.399652	-115.047668
676.552298	-115.840749
676.705012	-116.878764
676.857795	-118.200043
677.010648	-119.880520
677.163569	-122.070732
677.316560	-125.092628
677.469619	-129.799618
677.622748	-140.422893
677.775946	-138.261248
677.929214	-129.941797
678.082551	-126.300186
678.235957	-124.290332
678.389432	-123.229001
678.542977	-122.861309
678.696592	-123.056998
678.850276	-123.684395
679.004030	-124.464519
679.157853	-124.821828
679.311746	-124.198603
679.465709	-122.790852
679.619742	-121.217920
679.773844	-119.851147
679.928017	-118.804485
680.082259	-118.085271
680.236571	-117.669050
680.390954	-117.524776
680.545406	-117.622158
680.699929	-117.934217
680.854522	-118.440126
681.009185	-119.130655
681.163918	-120.017113
681.318722	-121.143450
681.473596	-122.600163
681.628540	-124.533406
681.783555	-127.084233
681.938641	-129.730894
682.093797	-129.509650
682.249023	-126.333074
682.404321	-123.269545
682.559689	-120.941377
682.715128	-119.248905
682.870637	-118.066623
683.026218	-117.304475
683.181869	-116.895426
683.337591	-116.779315
683.493385	-116.887695
683.649249	-117.129825
683.805185	-117.386212
683.961191	-117.525540
684.117269	-117.454003
684.273418	-117.163947
684.429639	-116.726637
684.585930	-116.235660
684.742294	-115.758132
684.898728	-115.319355
685.055234	-114.909751
685.211812	-114.500941
685.368461	-114.065170
685.525182	-113.592923
685.681975	-113.101428
685.838839	-112.630441
685.995775	-112.230056
686.152783	-111.948882
686.309863	-111.827267
686.467014	-111.895209
686.624238	-112.172302
686.781534	-112.666834
686.938902	-113.370839
687.096342	-114.246791
687.253854	-115.201644
687.411438	-116.056446
687.569095	-116.564495
687.726824	-116.551539
687.884626	-116.069510
688.042499	-115.332086
688.200446	-114.538001
688.358465	-113.799981
688.516556	-113.162962
688.674720	-112.634977
688.832957	-112.205818
688.991266	-111.855384
689.149649	-111.557533
689.308104	-111.283821
689.466632	-111.009241
689.625233	-110.719143
689.783906	-110.413979
689.942653	-110.108612
690.101473	-109.826338
690.260367	-109.591100
690.419333	-109.421537
690.578372	-109.328302
690.737485	-109.314108
690.896672	-109.375295
691.055931	-109.503938
691.215264	-109.689971
691.374671	-109.923032
691.534151	-110.193905
691.693704	-110.495258
691.853332	-110.821225
692.013033	-111.165112
692.172807	-111.514689
692.332656	-111.845407
692.492578	-112.114245
692.652575	-112.260681
692.812645	-112.222918
692.972789	-111.968235
693.133007	-111.516765
693.293300	-110.935750
693.453666	-110.310189
693.614107	-109.715600
693.774622	-109.206454
693.935211	-108.816599
694.095875	-108.564054
694.256613	-108.455598
694.417426	-108.489372
694.578313	-108.654784
694.739274	-108.929219
694.900311	-109.271586
695.061421	-109.615241
695.222607	-109.868746
695.383868	-109.938090
695.545203	-109.771479
695.706613	-109.393391
695.868098	-108.890836
696.029658	-108.367298
696.191293	-107.907493
696.353003	-107.567472
696.514789	-107.378966
696.676649	-107.356099
696.838585	-107.499108
697.000596	-107.793181
697.162682	-108.201239
697.324844	-108.650468
697.487081	-109.019394
697.649394	-109.150342
697.811782	-108.918085
697.974246	-108.319433
698.136786	-107.476846
698.299401	-106.550810
698.462092	-105.667480
698.624859	-104.903677
698.787702	-104.300120
698.950621	-103.876932
699.113616	-103.644090
699.276686	-103.607275
699.439833	-103.770731
699.603056	-104.138016
699.766355	-104.710529
699.929731	-105.482205
700.093183	-106.426131
700.256711	-107.465526
700.420315	-108.426873
700.583996	-109.022652
700.747754	-108.994484
700.911588	-108.366767
701.075499	-107.420413
701.239486	-106.433748
701.403550	-105.567403
701.567691	-104.892189
701.731909	-104.434657
701.896203	-104.203823
702.060575	-104.203619
702.225024	-104.438567
702.389549	-104.916954
702.554152	-105.653654
702.718832	-106.673851
702.883589	-108.018438
703.048424	-109.750704
703.213335	-111.955226
703.378324	-114.662285
703.543391	-117.328589
703.708535	-117.782490
703.873757	-115.595926
704.039056	-113.068041
704.204433	-110.991822
704.369887	-109.371944
704.535420	-108.116574
704.701030	-107.153143
704.866718	-106.435325
705.032484	-105.937043
705.198328	-105.647207
705.364250	-105.566399
705.530250	-105.705203
705.696328	-106.083881
705.862485	-106.733222
706.028720	-107.695933
706.195033	-109.024530
706.361424	-110.755063
706.527894	-112.762866
706.694442	-114.266069
706.861069	-113.812561
707.027775	-111.740943
707.194559	-109.487437
707.361422	-107.593263
707.528363	-106.116163
707.695384	-105.016011
707.862483	-104.248793
708.029661	-103.781373
708.196918	-103.590757
708.364254	-103.661247
708.531670	-103.981707
708.699164	-104.542733
708.866738	-105.332502
709.034391	-106.329116
709.202123	-107.485676
709.369935	-108.704094
709.537826	-109.804214
709.705796	-110.534258
709.873847	-110.694195
710.041976	-110.291379
710.210186	-109.506052
710.378475	-108.529975
710.546844	-107.491068
710.715292	-106.466545
710.883821	-105.509571
711.052429	-104.662976
711.221118	-103.963369
711.389887	-103.442342
711.558735	-103.127984
711.727664	-103.047431
711.896673	-103.230569
712.065763	-103.715438
712.234932	-104.557072
712.404183	-105.844264
712.573513	-107.737064
712.742924	-110.570346
712.912416	-115.252476
713.081988	-126.566883
713.251641	-121.819990
713.421375	-114.114267
713.591190	-110.476187
713.761085	-108.326197
713.931061	-107.013035
714.101119	-106.268225
714.271257	-105.945489
714.441476	-105.940203
714.611777	-106.153458
714.782159	-106.474712
714.952622	-106.785017
715.123166	-106.988604
715.293792	-107.057911
715.464499	-107.048352
715.635288	-107.064557
715.806158	-107.212607
715.977110	-107.569138
716.148143	-108.157781
716.319259	-108.897862
716.490456	-109.501191
716.661735	-109.463497
716.833096	-108.516756
717.004538	-107.014052
717.176063	-105.461303
717.347670	-104.135749
717.519359	-103.135333
717.691130	-102.484889
717.862984	-102.188911
718.034920	-102.252166
718.206938	-102.688177
718.379039	-103.523461
718.551222	-104.797286
718.723488	-106.541640
718.895836	-108.667938
719.068267	-110.547920
719.240781	-110.766913
719.413377	-109.265686
719.586057	-107.466818
719.758819	-106.047329
719.931664	-105.109940
720.104593	-104.619738
720.277604	-104.522565
720.450699	-104.759131
720.623876	-105.251500
720.797137	-105.879746
720.970482	-106.467676
721.143910	-106.822067
721.317421	-106.845933
721.491016	-106.614713
721.664694	-106.304686
721.838456	-106.074987
722.012302	-106.018800
722.186231	-106.164867
722.360244	-106.480503
722.534342	-106.859357
722.708523	-107.116006
722.882788	-107.053061
723.057137	-106.614743
