# 2022-03-22_02.15.57
# shape = sech2
# FWHM_ps = 0.1
# carrier_nm = 1542
# frep_MHz = 12126
# pow_mW = 8000
# GDD = 0.0
# propa_len = 0.16
# untap_len = 0.01
# taper_len = 0.1
# waist_len = 0.02
# uptap_len = 0.02
# untap_scale = 1.0
# waist_scale = 0.24210526315789477
# workingDir = NL_20110305_12 (Spirou)
# axis = slow
# window_ps = 10.0
# steps = 200
# points = 21700
# 
# wavelength [nm]	 power spectral density [dB]
600.043425	-103.694651
600.163550	-104.207229
600.283723	-104.542846
600.403943	-104.585793
600.524212	-104.268662
600.644529	-103.664928
600.764895	-102.940777
600.885308	-102.246887
601.005770	-101.671749
601.126280	-101.250845
601.246839	-100.999432
601.367446	-100.913068
601.488101	-100.976193
601.608804	-101.161804
601.729557	-101.440299
601.850357	-101.778628
601.971206	-102.134357
602.092104	-102.447313
602.213050	-102.658524
602.334045	-102.740536
602.455089	-102.708712
602.576181	-102.588883
602.697322	-102.397078
602.818511	-102.139517
602.939749	-101.818547
603.061036	-101.458129
603.182372	-101.101383
603.303757	-100.782260
603.425191	-100.516752
603.546673	-100.320048
603.668204	-100.198865
603.789785	-100.162240
603.911414	-100.220678
604.033092	-100.378889
604.154820	-100.657698
604.276596	-101.073840
604.398422	-101.619590
604.520297	-102.267705
604.642220	-102.962050
604.764193	-103.631064
604.886216	-104.208802
605.008287	-104.611561
605.130408	-104.776145
605.252578	-104.709005
605.374798	-104.495132
605.497066	-104.268747
605.619385	-104.131728
605.741752	-104.135266
605.864169	-104.305523
605.986636	-104.670340
606.109152	-105.261179
606.231718	-106.057571
606.354333	-106.908319
606.476998	-107.544768
606.599712	-107.693334
606.722476	-107.291478
606.845290	-106.484442
606.968154	-105.511937
607.091067	-104.596260
607.214030	-103.879906
607.337043	-103.426720
607.460106	-103.237499
607.583219	-103.288531
607.706381	-103.565045
607.829594	-104.074153
607.952856	-104.823985
608.076169	-105.817155
608.199531	-107.071718
608.322944	-108.577764
608.446407	-110.181095
608.569920	-111.220119
608.693483	-110.901061
608.817096	-109.533981
608.940759	-107.882125
609.064473	-106.323419
609.188237	-104.899916
609.312051	-103.651739
609.435916	-102.595201
609.559831	-101.721041
609.683796	-101.003707
609.807812	-100.358053
609.931878	-99.727726
610.055995	-99.063652
610.180162	-98.355215
610.304380	-97.618730
610.428648	-96.865837
610.552967	-96.132989
610.677337	-95.457041
610.801757	-94.876171
610.926228	-94.411380
611.050750	-94.062732
611.175323	-93.826018
611.299946	-93.698652
611.424620	-93.686702
611.549345	-93.782654
611.674121	-93.949502
611.798948	-94.132065
611.923826	-94.272838
612.048755	-94.325403
612.173734	-94.254204
612.298765	-94.037183
612.423847	-93.683765
612.548980	-93.233619
612.674165	-92.745588
612.799400	-92.264641
612.924687	-91.822881
613.050025	-91.436545
613.175414	-91.121595
613.300854	-90.884480
613.426346	-90.711220
613.551889	-90.581262
613.677484	-90.468132
613.803130	-90.361212
613.928827	-90.255272
614.054576	-90.136141
614.180377	-89.987903
614.306229	-89.792553
614.432132	-89.549433
614.558087	-89.269533
614.684094	-88.972450
614.810153	-88.690624
614.936263	-88.448369
615.062425	-88.264397
615.188639	-88.144450
615.314904	-88.095937
615.441222	-88.120316
615.567591	-88.209178
615.694012	-88.348165
615.820486	-88.519584
615.947011	-88.707429
616.073588	-88.889203
616.200217	-89.023709
616.326898	-89.065224
616.453632	-88.980530
616.580417	-88.775891
616.707255	-88.472832
616.834144	-88.104740
616.961086	-87.709814
617.088081	-87.321497
617.215127	-86.971431
617.342226	-86.678115
617.469378	-86.450190
617.596581	-86.290539
617.723837	-86.192022
617.851146	-86.148263
617.978507	-86.148476
618.105920	-86.182010
618.233386	-86.237366
618.360905	-86.297421
618.488476	-86.342599
618.616100	-86.342892
618.743777	-86.266971
618.871506	-86.091877
618.999288	-85.817573
619.127123	-85.463543
619.255011	-85.066219
619.382951	-84.671144
619.510945	-84.315990
619.638991	-84.023829
619.767090	-83.801228
619.895243	-83.647217
620.023448	-83.558403
620.151706	-83.527193
620.280017	-83.546848
620.408382	-83.609185
620.536799	-83.702880
620.665270	-83.811831
620.793794	-83.914498
620.922371	-83.992696
621.051002	-84.034278
621.179686	-84.025963
621.308423	-83.956886
621.437213	-83.824845
621.566057	-83.641543
621.694954	-83.427877
621.823905	-83.210877
621.952909	-83.015789
622.081967	-82.857045
622.211079	-82.737625
622.340244	-82.657422
622.469462	-82.618830
622.598735	-82.626093
622.728061	-82.684363
622.857441	-82.793758
622.986874	-82.950254
623.116361	-83.146450
623.245903	-83.366294
623.375498	-83.588742
623.505147	-83.788281
623.634850	-83.937228
623.764606	-84.014312
623.894417	-84.008238
624.024282	-83.928013
624.154201	-83.796867
624.284174	-83.640270
624.414202	-83.480244
624.544283	-83.332311
624.674419	-83.203752
624.804609	-83.101327
624.934853	-83.031879
625.065151	-82.999967
625.195504	-83.007535
625.325911	-83.053100
625.456373	-83.131472
625.586889	-83.234413
625.717460	-83.351048
625.848085	-83.472371
625.978764	-83.589393
626.109498	-83.691074
626.240287	-83.765980
626.371131	-83.807424
626.502029	-83.819512
626.632982	-83.809174
626.763989	-83.784818
626.895052	-83.752890
627.026169	-83.715737
627.157341	-83.674905
627.288568	-83.636401
627.419850	-83.603317
627.551187	-83.567639
627.682579	-83.524984
627.814026	-83.473011
627.945528	-83.406848
628.077085	-83.322794
628.208697	-83.217005
628.340364	-83.092976
628.472087	-82.953429
628.603865	-82.796714
628.735698	-82.627663
628.867586	-82.454156
628.999530	-82.287646
629.131529	-82.137357
629.263584	-82.012235
629.395694	-81.920347
629.527859	-81.864318
629.660080	-81.842879
629.792357	-81.852922
629.924689	-81.890292
630.057077	-81.949064
630.189520	-82.019209
630.322019	-82.093382
630.454574	-82.167909
630.587184	-82.234384
630.719851	-82.284030
630.852573	-82.308609
630.985351	-82.306874
631.118185	-82.283563
631.251075	-82.243491
631.384021	-82.192359
631.517023	-82.135521
631.650081	-82.074015
631.783195	-82.007193
631.916365	-81.933466
632.049592	-81.856513
632.182874	-81.784400
632.316213	-81.722088
632.449608	-81.681303
632.583059	-81.670319
632.716567	-81.690004
632.850131	-81.737600
632.983751	-81.802747
633.117428	-81.880197
633.251161	-81.967009
633.384951	-82.053915
633.518797	-82.136617
633.652700	-82.217234
633.786660	-82.297903
633.920676	-82.377407
634.054749	-82.451645
634.188879	-82.520992
634.323065	-82.592611
634.457308	-82.671211
634.591608	-82.756476
634.725965	-82.846088
634.860379	-82.939029
634.994850	-83.040315
635.129377	-83.151848
635.263962	-83.271056
635.398604	-83.399620
635.533303	-83.544375
635.668058	-83.709502
635.802872	-83.895265
635.937742	-84.095778
636.072669	-84.306718
636.207654	-84.522687
636.342696	-84.739134
636.477796	-84.957322
636.612953	-85.175700
636.748167	-85.388582
636.883439	-85.587879
637.018768	-85.775426
637.154155	-85.951030
637.289599	-86.120317
637.425101	-86.293619
637.560660	-86.471776
637.696277	-86.665620
637.831952	-86.886547
637.967685	-87.129282
638.103475	-87.390334
638.239324	-87.668116
638.375230	-87.956513
638.511194	-88.252103
638.647215	-88.554858
638.783295	-88.871733
638.919433	-89.208655
639.055629	-89.567715
639.191883	-89.941939
639.328195	-90.322380
639.464565	-90.692517
639.600994	-91.030833
639.737481	-91.322391
639.874025	-91.539296
640.010629	-91.671197
640.147290	-91.725870
640.284010	-91.712898
640.420789	-91.662343
640.557625	-91.591555
640.694521	-91.526195
640.831474	-91.480356
640.968487	-91.452864
641.105558	-91.452540
641.242687	-91.473429
641.379876	-91.519790
641.517123	-91.600802
641.654429	-91.707175
641.791793	-91.836019
641.929216	-91.983310
642.066699	-92.158839
642.204240	-92.380441
642.341840	-92.657170
642.479499	-92.982482
642.617217	-93.345079
642.754994	-93.737610
642.892830	-94.119290
643.030726	-94.471835
643.168680	-94.798415
643.306694	-95.094366
643.444767	-95.372651
643.582899	-95.625770
643.721091	-95.854399
643.859342	-96.042844
643.997652	-96.149191
644.136022	-96.162077
644.274451	-96.039704
644.412940	-95.776257
644.551488	-95.388710
644.690096	-94.886987
644.828763	-94.308009
644.967490	-93.663387
645.106277	-92.992111
645.245124	-92.345272
645.384030	-91.743274
645.522997	-91.211147
645.662023	-90.742744
645.801109	-90.335809
645.940255	-89.997311
646.079460	-89.698072
646.218726	-89.426471
646.358052	-89.166551
646.497438	-88.913737
646.636884	-88.688861
646.776391	-88.492068
646.915957	-88.334966
647.055584	-88.225545
647.195271	-88.153551
647.335019	-88.105696
647.474826	-88.058391
647.614695	-87.999624
647.754623	-87.911252
647.894612	-87.783028
648.034662	-87.609690
648.174772	-87.399562
648.314943	-87.163908
648.455174	-86.906849
648.595466	-86.646806
648.735819	-86.391520
648.876233	-86.145509
649.016707	-85.913507
649.157242	-85.696176
649.297838	-85.495481
649.438495	-85.305965
649.579213	-85.132121
649.719992	-84.984314
649.860832	-84.874901
650.001733	-84.808405
650.142695	-84.774946
650.283718	-84.769808
650.424803	-84.775080
650.565949	-84.768799
650.707156	-84.732917
650.848424	-84.653273
650.989754	-84.532540
651.131145	-84.362468
651.272597	-84.144037
651.414111	-83.886530
651.555687	-83.604465
651.697324	-83.322998
651.839022	-83.043415
651.980782	-82.773155
652.122604	-82.513028
652.264488	-82.258725
652.406433	-82.014912
652.548441	-81.775714
652.690510	-81.546310
652.832640	-81.328066
652.974833	-81.122441
653.117088	-80.932406
653.259405	-80.752966
653.401784	-80.588676
653.544224	-80.436200
653.686727	-80.294295
653.829293	-80.166065
653.971920	-80.045850
654.114609	-79.936917
654.257361	-79.834670
654.400175	-79.737972
654.543052	-79.652932
654.685991	-79.578083
654.828992	-79.517292
654.972056	-79.469256
655.115183	-79.431827
655.258372	-79.406090
655.401623	-79.381486
655.544937	-79.355799
655.688314	-79.323775
655.831754	-79.282385
655.975256	-79.235510
656.118822	-79.178003
656.262450	-79.118993
656.406141	-79.063599
656.549894	-79.013904
656.693711	-78.977886
656.837591	-78.953657
656.981534	-78.948541
657.125540	-78.960225
657.269610	-78.985347
657.413742	-79.028907
657.557938	-79.086095
657.702196	-79.160329
657.846519	-79.253276
657.990904	-79.363487
658.135353	-79.491776
658.279866	-79.626706
658.424441	-79.759089
658.569081	-79.877563
658.713784	-79.975094
658.858550	-80.056447
659.003381	-80.118035
659.148274	-80.162219
659.293232	-80.189861
659.438253	-80.198104
659.583339	-80.185241
659.728488	-80.143417
659.873701	-80.077816
660.018978	-79.987692
660.164318	-79.886318
660.309723	-79.792184
660.455192	-79.710093
660.600725	-79.647073
660.746323	-79.599033
660.891984	-79.566020
661.037710	-79.544050
661.183500	-79.520919
661.329354	-79.496982
661.475272	-79.468079
661.621255	-79.432043
661.767303	-79.391084
661.913415	-79.347102
662.059591	-79.306160
662.205833	-79.268255
662.352138	-79.229518
662.498509	-79.189654
662.644944	-79.152288
662.791443	-79.120596
662.938008	-79.091984
663.084638	-79.072607
663.231332	-79.067684
663.378091	-79.076289
663.524915	-79.103378
663.671804	-79.146174
663.818759	-79.203975
663.965778	-79.272757
664.112863	-79.344194
664.260012	-79.418125
664.407227	-79.497346
664.554507	-79.578080
664.701853	-79.665426
664.849264	-79.773052
664.996740	-79.901208
665.144282	-80.046961
665.291889	-80.221694
665.439561	-80.423405
665.587300	-80.645933
665.735103	-80.896614
665.882973	-81.174335
666.030908	-81.472727
666.178909	-81.790400
666.326976	-82.130070
666.475109	-82.485481
666.623307	-82.846632
666.771571	-83.227800
666.919902	-83.630046
667.068298	-84.053130
667.216761	-84.501064
667.365289	-84.968212
667.513884	-85.461569
667.662545	-85.957993
667.811272	-86.456538
667.960065	-86.980805
668.108925	-87.510532
668.257851	-88.053669
668.406843	-88.596747
668.555902	-89.128649
668.705027	-89.674113
668.854219	-90.173510
669.003478	-90.644778
669.152803	-91.100805
669.302195	-91.461817
669.451653	-91.762174
669.601179	-92.000157
669.750771	-92.175002
669.900430	-92.279181
670.050156	-92.265074
670.199949	-92.177228
670.349808	-91.994030
670.499735	-91.709052
670.649729	-91.387471
670.799790	-91.010055
670.949918	-90.574426
671.100114	-90.085496
671.250377	-89.577167
671.400707	-89.075316
671.551104	-88.562131
671.701569	-88.084370
671.852101	-87.655653
672.002700	-87.253489
672.153368	-86.909280
672.304102	-86.629834
672.454905	-86.392004
672.605775	-86.196290
672.756713	-86.040843
672.907718	-85.919798
673.058791	-85.814628
673.209933	-85.719538
673.361142	-85.617185
673.512419	-85.499896
673.663764	-85.398224
673.815177	-85.308267
673.966658	-85.248511
674.118207	-85.225957
674.269825	-85.223534
674.421510	-85.270488
674.573264	-85.350334
674.725086	-85.446965
674.876977	-85.578599
675.028936	-85.713278
675.180963	-85.838626
675.333059	-85.954266
675.485224	-86.027093
675.637457	-86.053863
675.789758	-86.048024
675.942129	-86.001672
676.094568	-85.923162
676.247075	-85.867708
676.399652	-85.794239
676.552298	-85.674261
676.705012	-85.544940
676.857795	-85.351298
677.010648	-85.076553
677.163569	-84.767293
677.316560	-84.416970
677.469619	-84.040248
677.622748	-83.683489
677.775946	-83.363027
677.929214	-83.057811
678.082551	-82.782659
678.235957	-82.538147
678.389432	-82.292088
678.542977	-82.053078
678.696592	-81.830228
678.850276	-81.620069
679.004030	-81.430835
679.157853	-81.268891
679.311746	-81.126437
679.465709	-80.996854
679.619742	-80.891494
679.773844	-80.800839
679.928017	-80.732862
680.082259	-80.708720
680.236571	-80.724692
680.390954	-80.787625
680.545406	-80.900368
680.699929	-81.060868
680.854522	-81.268783
681.009185	-81.493683
681.163918	-81.733450
681.318722	-81.988988
681.473596	-82.251838
681.628540	-82.535901
681.783555	-82.852826
681.938641	-83.221054
682.093797	-83.635419
682.249023	-84.062819
682.404321	-84.527325
682.559689	-85.013995
682.715128	-85.479490
682.870637	-85.953184
683.026218	-86.461027
683.181869	-86.999222
683.337591	-87.564099
683.493385	-88.182133
683.649249	-88.814882
683.805185	-89.416845
683.961191	-90.014003
684.117269	-90.555879
684.273418	-91.024075
684.429639	-91.458045
684.585930	-91.763802
684.742294	-91.923012
684.898728	-91.990628
685.055234	-91.894815
685.211812	-91.749964
685.368461	-91.597417
685.525182	-91.392056
685.681975	-91.201556
685.838839	-91.013457
685.995775	-90.851636
686.152783	-90.711866
686.309863	-90.572656
686.467014	-90.462736
686.624238	-90.361322
686.781534	-90.295956
686.938902	-90.321990
687.096342	-90.420436
687.253854	-90.596947
687.411438	-90.824251
687.569095	-91.073946
687.726824	-91.302845
687.884626	-91.474855
688.042499	-91.609329
688.200446	-91.656613
688.358465	-91.561190
688.516556	-91.332749
688.674720	-90.944874
688.832957	-90.378721
688.991266	-89.677955
689.149649	-88.888835
689.308104	-88.041287
689.466632	-87.155674
689.625233	-86.276908
689.783906	-85.426416
689.942653	-84.602539
690.101473	-83.834141
690.260367	-83.117282
690.419333	-82.445693
690.578372	-81.829500
690.737485	-81.254757
690.896672	-80.724376
691.055931	-80.237357
691.215264	-79.794569
691.374671	-79.415882
691.534151	-79.090210
691.693704	-78.821835
691.853332	-78.616768
692.013033	-78.458749
692.172807	-78.344268
692.332656	-78.274214
692.492578	-78.237747
692.652575	-78.242390
692.812645	-78.287658
692.972789	-78.368217
693.133007	-78.484231
693.293300	-78.634898
693.453666	-78.821050
693.614107	-79.045721
693.774622	-79.304564
693.935211	-79.600582
694.095875	-79.929391
694.256613	-80.277331
694.417426	-80.630155
694.578313	-80.952222
694.739274	-81.213709
694.900311	-81.411112
695.061421	-81.536714
695.222607	-81.618757
695.383868	-81.673681
695.545203	-81.695021
695.706613	-81.693261
695.868098	-81.643747
696.029658	-81.550984
696.191293	-81.422594
696.353003	-81.271912
696.514789	-81.124561
696.676649	-81.000163
696.838585	-80.923856
697.000596	-80.902199
697.162682	-80.938116
697.324844	-81.026127
697.487081	-81.154955
697.649394	-81.329181
697.811782	-81.536873
697.974246	-81.780663
698.136786	-82.050688
698.299401	-82.336792
698.462092	-82.641671
698.624859	-82.955262
698.787702	-83.290043
698.950621	-83.666085
699.113616	-84.067281
699.276686	-84.495125
699.439833	-84.924380
699.603056	-85.348384
699.766355	-85.805017
699.929731	-86.325028
700.093183	-86.987100
700.256711	-87.829350
700.420315	-88.887257
700.583996	-90.188205
700.747754	-91.786132
700.911588	-93.848193
701.075499	-96.788527
701.239486	-101.616539
701.403550	-107.938117
701.567691	-100.970185
701.731909	-95.412531
701.896203	-91.849155
702.060575	-89.269633
702.225024	-87.253359
702.389549	-85.597393
702.554152	-84.181571
702.718832	-82.958520
702.883589	-81.903126
703.048424	-81.003063
703.213335	-80.234327
703.378324	-79.565443
703.543391	-78.966646
703.708535	-78.419570
703.873757	-77.922425
704.039056	-77.483366
704.204433	-77.108180
704.369887	-76.805006
704.535420	-76.569526
704.701030	-76.387368
704.866718	-76.243957
705.032484	-76.119806
705.198328	-76.010009
705.364250	-75.917079
705.530250	-75.848056
705.696328	-75.803379
705.862485	-75.769329
706.028720	-75.737093
706.195033	-75.694990
706.361424	-75.642386
706.527894	-75.588074
706.694442	-75.528383
706.861069	-75.458902
707.027775	-75.367557
707.194559	-75.244942
707.361422	-75.089239
707.528363	-74.905677
707.695384	-74.706350
707.862483	-74.501806
708.029661	-74.303543
708.196918	-74.110678
708.364254	-73.918626
708.531670	-73.719017
708.699164	-73.506813
708.866738	-73.285090
709.034391	-73.064080
709.202123	-72.855278
709.369935	-72.666316
709.537826	-72.499294
709.705796	-72.356359
709.873847	-72.237366
710.041976	-72.140117
710.210186	-72.066603
710.378475	-72.016116
710.546844	-71.984075
710.715292	-71.973696
710.883821	-71.982264
711.052429	-72.009630
711.221118	-72.058922
711.389887	-72.127300
711.558735	-72.217959
711.727664	-72.332530
711.896673	-72.472940
712.065763	-72.634138
712.234932	-72.797412
712.404183	-72.942002
712.573513	-73.046513
712.742924	-73.109354
712.912416	-73.140566
713.081988	-73.149418
713.251641	-73.141609
713.421375	-73.112255
713.591190	-73.056449
713.761085	-72.977390
713.931061	-72.879508
714.101119	-72.776093
714.271257	-72.678728
714.441476	-72.595841
714.611777	-72.530605
714.782159	-72.488919
714.952622	-72.475013
715.123166	-72.502867
715.293792	-72.584468
715.464499	-72.723254
715.635288	-72.909339
715.806158	-73.130453
715.977110	-73.373902
716.148143	-73.642356
716.319259	-73.952779
716.490456	-74.313972
716.661735	-74.737935
716.833096	-75.206834
717.004538	-75.700337
717.176063	-76.187672
717.347670	-76.652047
717.519359	-77.085171
717.691130	-77.482074
717.862984	-77.820270
718.034920	-78.094816
718.206938	-78.321860
718.379039	-78.553558
718.551222	-78.830604
718.723488	-79.182120
718.895836	-79.592499
719.068267	-80.024496
719.240781	-80.447514
719.413377	-80.861254
719.586057	-81.307664
719.758819	-81.850847
719.931664	-82.540902
720.104593	-83.400849
720.277604	-84.396407
720.450699	-85.468761
720.623876	-86.530826
720.797137	-87.505721
720.970482	-88.317274
721.143910	-88.892336
721.317421	-89.179066
721.491016	-89.194842
721.664694	-89.025513
721.838456	-88.731748
722.012302	-88.300409
722.186231	-87.692012
722.360244	-86.847611
722.534342	-85.828431
722.708523	-84.705119
722.882788	-83.581689
723.057137	-82.536178
723.231570	-81.586885
723.406088	-80.713307
723.580689	-79.887794
723.755375	-79.076361
723.930146	-78.281652
724.105000	-77.515022
724.279940	-76.798464
724.454963	-76.150772
724.630072	-75.573998
724.805265	-75.060476
724.980543	-74.601091
725.155905	-74.189763
725.331353	-73.825710
725.506885	-73.504897
725.682503	-73.212863
725.858205	-72.937588
726.033993	-72.670195
726.209865	-72.418373
726.385823	-72.193777
726.561866	-72.008859
726.737995	-71.867622
726.914209	-71.765523
727.090508	-71.696032
727.266893	-71.652259
727.443364	-71.638912
727.619920	-71.667120
727.796562	-71.753106
727.973290	-71.909253
728.150103	-72.141115
728.327003	-72.452997
728.503988	-72.848090
728.681060	-73.330148
728.858218	-73.899243
729.035461	-74.559580
729.212791	-75.320658
