# 2022-03-22_12.54.31
# shape = sech2
# FWHM_ps = 0.11
# carrier_nm = 1542
# frep_MHz = 12126
# pow_mW = 8000
# GDD = 0.0
# propa_len = 0.15311111111111111
# untap_len = 0.01
# taper_len = 0.09311111111111112
# waist_len = 0.02
# uptap_len = 0.02
# untap_scale = 1.0
# waist_scale = 0.3052631578947369
# workingDir = NL_20110305_12 (Spirou)
# axis = slow
# window_ps = 10.0
# steps = 200
# points = 21700
# 
# wavelength [nm]	 power spectral density [dB]
600.043425	-105.420212
600.163550	-105.541600
600.283723	-105.656066
600.403943	-105.782046
600.524212	-105.940480
600.644529	-106.151595
600.764895	-106.433495
600.885308	-106.803255
601.005770	-107.277424
601.126280	-107.872414
601.246839	-108.605653
601.367446	-109.498406
601.488101	-110.577416
601.608804	-111.876755
601.729557	-113.440055
601.850357	-115.321984
601.971206	-117.566362
602.092104	-120.091088
602.213050	-122.261900
602.334045	-122.669838
602.455089	-121.296546
602.576181	-119.566233
602.697322	-118.146636
602.818511	-117.141862
602.939749	-116.528097
603.061036	-116.273622
603.182372	-116.357598
603.303757	-116.764497
603.425191	-117.460807
603.546673	-118.330284
603.668204	-119.034380
603.789785	-118.962918
603.911414	-117.783174
604.033092	-115.925283
604.154820	-113.956209
604.276596	-112.148684
604.398422	-110.577075
604.520297	-109.243746
604.642220	-108.131525
604.764193	-107.221077
604.886216	-106.496292
605.008287	-105.945546
605.130408	-105.561498
605.252578	-105.340608
605.374798	-105.283603
605.497066	-105.395576
605.619385	-105.686719
605.741752	-106.173748
605.864169	-106.882382
605.986636	-107.851770
606.109152	-109.140463
606.231718	-110.834965
606.354333	-113.046610
606.476998	-115.786314
606.599712	-118.104573
606.722476	-117.340844
606.845290	-114.455662
606.968154	-111.734601
607.091067	-109.567180
607.214030	-107.863688
607.337043	-106.516304
607.460106	-105.447292
607.583219	-104.603133
607.706381	-103.947695
607.829594	-103.455907
607.952856	-103.110486
608.076169	-102.899179
608.199531	-102.814197
608.322944	-102.851180
608.446407	-103.008913
608.569920	-103.288877
608.693483	-103.694392
608.817096	-104.231491
608.940759	-104.907460
609.064473	-105.728634
609.188237	-106.693091
609.312051	-107.774072
609.435916	-108.882057
609.559831	-109.802862
609.683796	-110.191699
609.807812	-109.798062
609.931878	-108.745392
610.055995	-107.384260
610.180162	-105.986689
610.304380	-104.683546
610.428648	-103.520388
610.552967	-102.505203
610.677337	-101.633190
610.801757	-100.895776
610.926228	-100.284098
611.050750	-99.790783
611.175323	-99.409618
611.299946	-99.135512
611.424620	-98.964587
611.549345	-98.893787
611.674121	-98.920083
611.798948	-99.040744
611.923826	-99.252414
612.048755	-99.549812
612.173734	-99.924725
612.298765	-100.363190
612.423847	-100.843661
612.548980	-101.333170
612.674165	-101.786594
612.799400	-102.149416
612.924687	-102.368478
613.050025	-102.409933
613.175414	-102.273589
613.300854	-101.991578
613.426346	-101.614747
613.551889	-101.195162
613.677484	-100.775416
613.803130	-100.385303
613.928827	-100.042899
614.054576	-99.757547
614.180377	-99.532803
614.306229	-99.368462
614.432132	-99.262093
614.558087	-99.209337
614.684094	-99.205624
614.810153	-99.245431
614.936263	-99.323291
615.062425	-99.433913
615.188639	-99.571899
615.314904	-99.731689
615.441222	-99.908166
615.567591	-100.096145
615.694012	-100.290296
615.820486	-100.485622
615.947011	-100.676934
616.073588	-100.859374
616.200217	-101.027977
616.326898	-101.178779
616.453632	-101.306810
616.580417	-101.408278
616.707255	-101.479185
616.834144	-101.515919
616.961086	-101.514834
617.088081	-101.473500
617.215127	-101.390519
617.342226	-101.266919
617.469378	-101.105497
617.596581	-100.912238
617.723837	-100.695171
617.851146	-100.463615
617.978507	-100.228196
618.105920	-99.999110
618.233386	-99.785807
618.360905	-99.596754
618.488476	-99.439341
618.616100	-99.319763
618.743777	-99.242855
618.871506	-99.212477
618.999288	-99.231871
619.127123	-99.303366
619.255011	-99.428205
619.382951	-99.607070
619.510945	-99.839352
619.638991	-100.123113
619.767090	-100.455230
619.895243	-100.831227
620.023448	-101.244998
620.151706	-101.688852
620.280017	-102.153687
620.408382	-102.628832
620.536799	-103.102995
620.665270	-103.562913
620.793794	-103.994373
620.922371	-104.383416
621.051002	-104.715760
621.179686	-104.978930
621.308423	-105.163259
621.437213	-105.262313
621.566057	-105.275048
621.694954	-105.206220
621.823905	-105.065006
621.952909	-104.862374
622.081967	-104.611110
622.211079	-104.324221
622.340244	-104.012993
622.469462	-103.687357
622.598735	-103.354598
622.728061	-103.020140
622.857441	-102.687768
622.986874	-102.360493
623.116361	-102.040286
623.245903	-101.728063
623.375498	-101.424962
623.505147	-101.131972
623.634850	-100.849450
623.764606	-100.577351
623.894417	-100.315891
624.024282	-100.064394
624.154201	-99.822238
624.284174	-99.588498
624.414202	-99.362615
624.544283	-99.144043
624.674419	-98.932761
624.804609	-98.728919
624.934853	-98.532777
625.065151	-98.344778
625.195504	-98.165202
625.325911	-97.993999
625.456373	-97.830582
625.586889	-97.674876
625.717460	-97.526302
625.848085	-97.384606
625.978764	-97.249658
626.109498	-97.121591
626.240287	-97.001021
626.371131	-96.888430
626.502029	-96.784109
626.632982	-96.688498
626.763989	-96.601374
626.895052	-96.522179
627.026169	-96.449877
627.157341	-96.383328
627.288568	-96.320776
627.419850	-96.260691
627.551187	-96.201527
627.682579	-96.141571
627.814026	-96.079320
627.945528	-96.013573
628.077085	-95.943035
628.208697	-95.866234
628.340364	-95.782027
628.472087	-95.689000
628.603865	-95.585940
628.735698	-95.471651
628.867586	-95.344987
628.999530	-95.205007
629.131529	-95.051191
629.263584	-94.883155
629.395694	-94.700923
629.527859	-94.505178
629.660080	-94.296942
629.792357	-94.077599
629.924689	-93.849143
630.057077	-93.613850
630.189520	-93.374103
630.322019	-93.132263
630.454574	-92.890534
630.587184	-92.650723
630.719851	-92.414080
630.852573	-92.181502
630.985351	-91.953563
631.118185	-91.730436
631.251075	-91.512516
631.384021	-91.300391
631.517023	-91.094950
631.650081	-90.897357
631.783195	-90.709147
631.916365	-90.531857
632.049592	-90.367018
632.182874	-90.215848
632.316213	-90.079191
632.449608	-89.957527
632.583059	-89.850810
632.716567	-89.758673
632.850131	-89.680354
632.983751	-89.614715
633.117428	-89.560490
633.251161	-89.516193
633.384951	-89.480224
633.518797	-89.451033
633.652700	-89.427040
633.786660	-89.406952
633.920676	-89.389666
634.054749	-89.374361
634.188879	-89.360706
634.323065	-89.348507
634.457308	-89.337877
634.591608	-89.329212
634.725965	-89.323085
634.860379	-89.320044
634.994850	-89.320852
635.129377	-89.326286
635.263962	-89.337089
635.398604	-89.353843
635.533303	-89.376815
635.668058	-89.405947
635.802872	-89.440820
635.937742	-89.480321
636.072669	-89.523171
636.207654	-89.567911
636.342696	-89.613050
636.477796	-89.657498
636.612953	-89.700669
636.748167	-89.742467
636.883439	-89.783440
637.018768	-89.824705
637.154155	-89.867573
637.289599	-89.913589
637.425101	-89.964660
637.560660	-90.022624
637.696277	-90.089476
637.831952	-90.167447
637.967685	-90.258651
638.103475	-90.364997
638.239324	-90.487986
638.375230	-90.628755
638.511194	-90.787649
638.647215	-90.964347
638.783295	-91.157345
638.919433	-91.364736
639.055629	-91.583799
639.191883	-91.810995
639.328195	-92.042315
639.464565	-92.273401
639.600994	-92.499481
639.737481	-92.715912
639.874025	-92.918207
640.010629	-93.102321
640.147290	-93.265076
640.284010	-93.403768
640.420789	-93.516536
640.557625	-93.601794
640.694521	-93.657919
640.831474	-93.683133
640.968487	-93.675368
641.105558	-93.633081
641.242687	-93.555069
641.379876	-93.441692
641.517123	-93.295084
641.654429	-93.118963
641.791793	-92.918454
641.929216	-92.699159
642.066699	-92.466699
642.204240	-92.225628
642.341840	-91.979619
642.479499	-91.731124
642.617217	-91.481960
642.754994	-91.233551
642.892830	-90.987525
643.030726	-90.745534
643.168680	-90.509681
643.306694	-90.281730
643.444767	-90.062759
643.582899	-89.852905
643.721091	-89.651102
643.859342	-89.455006
643.997652	-89.261631
644.136022	-89.067581
644.274451	-88.869703
644.412940	-88.665437
644.551488	-88.453038
644.690096	-88.231318
644.828763	-87.999817
644.967490	-87.758415
645.106277	-87.507518
645.245124	-87.248045
645.384030	-86.981758
645.522997	-86.711123
645.662023	-86.439444
645.801109	-86.170289
645.940255	-85.907160
646.079460	-85.653147
646.218726	-85.410508
646.358052	-85.180593
646.497438	-84.963923
646.636884	-84.760440
646.776391	-84.569594
646.915957	-84.390789
647.055584	-84.223452
647.195271	-84.067063
647.335019	-83.921014
647.474826	-83.784667
647.614695	-83.656965
647.754623	-83.536545
647.894612	-83.421573
648.034662	-83.309950
648.174772	-83.199401
648.314943	-83.087528
648.455174	-82.972206
648.595466	-82.851469
648.735819	-82.723775
648.876233	-82.587860
649.016707	-82.442869
649.157242	-82.288239
649.297838	-82.123705
649.438495	-81.949253
649.579213	-81.765085
649.719992	-81.571652
649.860832	-81.369605
650.001733	-81.159807
650.142695	-80.943313
650.283718	-80.721338
650.424803	-80.495368
650.565949	-80.267044
650.707156	-80.038166
650.848424	-79.810601
650.989754	-79.586195
651.131145	-79.366714
651.272597	-79.153682
651.414111	-78.948310
651.555687	-78.751549
651.697324	-78.564097
651.839022	-78.386459
651.980782	-78.219090
652.122604	-78.062347
652.264488	-77.916577
652.406433	-77.782020
652.548441	-77.658725
652.690510	-77.546575
652.832640	-77.445130
652.974833	-77.353750
653.117088	-77.271655
653.259405	-77.198035
653.401784	-77.132205
653.544224	-77.073587
653.686727	-77.021767
653.829293	-76.976302
653.971920	-76.936704
654.114609	-76.902308
654.257361	-76.872262
654.400175	-76.845564
654.543052	-76.821284
654.685991	-76.798724
654.828992	-76.777624
654.972056	-76.758181
655.115183	-76.741032
655.258372	-76.726960
655.401623	-76.716798
655.544937	-76.711058
655.688314	-76.709915
655.831754	-76.713174
655.975256	-76.720374
656.118822	-76.730954
656.262450	-76.744569
656.406141	-76.761139
656.549894	-76.780956
656.693711	-76.804591
656.837591	-76.832731
656.981534	-76.865954
657.125540	-76.904592
657.269610	-76.948635
657.413742	-76.997755
657.557938	-77.051345
657.702196	-77.108682
657.846519	-77.169070
657.990904	-77.231926
658.135353	-77.296837
658.279866	-77.363471
658.424441	-77.431512
658.569081	-77.500464
658.713784	-77.569691
658.858550	-77.638246
659.003381	-77.704984
659.148274	-77.768618
659.293232	-77.827896
659.438253	-77.881647
659.583339	-77.928957
659.728488	-77.969135
659.873701	-78.001726
660.018978	-78.026455
660.164318	-78.043113
660.309723	-78.051563
660.455192	-78.051639
660.600725	-78.043290
660.746323	-78.026546
660.891984	-78.001738
661.037710	-77.969406
661.183500	-77.930405
661.329354	-77.885752
661.475272	-77.836510
661.621255	-77.783570
661.767303	-77.727562
661.913415	-77.668699
662.059591	-77.606843
662.205833	-77.541557
662.352138	-77.472387
662.498509	-77.398999
662.644944	-77.321344
662.791443	-77.239673
662.938008	-77.154418
663.084638	-77.066066
663.231332	-76.974931
663.378091	-76.881119
663.524915	-76.784569
663.671804	-76.685110
663.818759	-76.582778
663.965778	-76.477994
664.112863	-76.371692
664.260012	-76.265267
664.407227	-76.160397
664.554507	-76.058869
664.701853	-75.962271
664.849264	-75.871936
664.996740	-75.788770
665.144282	-75.713321
665.291889	-75.645900
665.439561	-75.586693
665.587300	-75.535818
665.735103	-75.493332
665.882973	-75.459181
666.030908	-75.433186
666.178909	-75.414980
666.326976	-75.404020
666.475109	-75.399621
666.623307	-75.401058
666.771571	-75.407585
666.919902	-75.418587
667.068298	-75.433548
667.216761	-75.452143
667.365289	-75.474157
667.513884	-75.499524
667.662545	-75.528198
667.811272	-75.560225
667.960065	-75.595645
668.108925	-75.634515
668.257851	-75.677028
668.406843	-75.723532
668.555902	-75.774702
668.705027	-75.831511
668.854219	-75.895183
669.003478	-75.967125
669.152803	-76.048723
669.302195	-76.141226
669.451653	-76.245725
669.601179	-76.363093
669.750771	-76.494232
669.900430	-76.640135
670.050156	-76.802054
670.199949	-76.981501
670.349808	-77.180039
670.499735	-77.399082
670.649729	-77.639645
670.799790	-77.902096
670.949918	-78.186092
671.100114	-78.490453
671.250377	-78.813275
671.400707	-79.151869
671.551104	-79.502571
671.701569	-79.860498
671.852101	-80.218927
672.002700	-80.568891
672.153368	-80.898619
672.304102	-81.193723
672.454905	-81.437637
672.605775	-81.613148
672.756713	-81.704399
672.907718	-81.699423
673.058791	-81.592299
673.209933	-81.384279
673.361142	-81.083274
673.512419	-80.702267
673.663764	-80.256731
673.815177	-79.762557
673.966658	-79.234359
674.118207	-78.684761
674.269825	-78.124144
674.421510	-77.560799
674.573264	-77.001257
674.725086	-76.450491
674.876977	-75.912310
675.028936	-75.389484
675.180963	-74.883992
675.333059	-74.397195
675.485224	-73.929894
675.637457	-73.482448
675.789758	-73.054785
675.942129	-72.646534
676.094568	-72.256999
676.247075	-71.885351
676.399652	-71.530721
676.552298	-71.192434
676.705012	-70.870041
676.857795	-70.563386
677.010648	-70.272535
677.163569	-69.997615
677.316560	-69.738679
677.469619	-69.495503
677.622748	-69.267587
677.775946	-69.054147
677.929214	-68.854296
678.082551	-68.667179
678.235957	-68.492109
678.389432	-68.328684
678.542977	-68.176787
678.696592	-68.036550
678.850276	-67.908221
679.004030	-67.792089
679.157853	-67.688390
679.311746	-67.597290
679.465709	-67.518883
679.619742	-67.453203
679.773844	-67.400241
679.928017	-67.359968
680.082259	-67.332293
680.236571	-67.317079
680.390954	-67.314103
680.545406	-67.323054
680.699929	-67.343528
680.854522	-67.375030
681.009185	-67.416984
681.163918	-67.468719
681.318722	-67.529554
681.473596	-67.598808
681.628540	-67.675903
681.783555	-67.760435
681.938641	-67.852225
682.093797	-67.951341
682.249023	-68.058055
682.404321	-68.172802
682.559689	-68.296167
682.715128	-68.428892
682.870637	-68.571884
683.026218	-68.726256
683.181869	-68.893354
683.337591	-69.074729
683.493385	-69.271962
683.649249	-69.486537
683.805185	-69.719708
683.961191	-69.972503
684.117269	-70.245802
684.273418	-70.540487
684.429639	-70.857588
684.585930	-71.198383
684.742294	-71.564440
684.898728	-71.957508
685.055234	-72.379442
685.211812	-72.832173
685.368461	-73.317732
685.525182	-73.838396
685.681975	-74.396639
685.838839	-74.994863
685.995775	-75.634636
686.152783	-76.315055
686.309863	-77.030130
686.467014	-77.764760
686.624238	-78.489363
686.781534	-79.154230
686.938902	-79.687763
687.096342	-80.006749
687.253854	-80.043921
687.411438	-79.781345
687.569095	-79.260504
687.726824	-78.559107
687.884626	-77.757119
688.042499	-76.916671
688.200446	-76.078199
688.358465	-75.264831
688.516556	-74.488193
688.674720	-73.753179
688.832957	-73.060934
688.991266	-72.410760
689.149649	-71.801066
689.308104	-71.229794
689.466632	-70.694588
689.625233	-70.192948
689.783906	-69.722476
689.942653	-69.281005
690.101473	-68.866721
690.260367	-68.478160
690.419333	-68.114112
690.578372	-67.773399
690.737485	-67.454696
690.896672	-67.156404
691.055931	-66.876694
691.215264	-66.613642
691.374671	-66.365466
691.534151	-66.130719
691.693704	-65.908400
691.853332	-65.697979
692.013033	-65.499296
692.172807	-65.312462
692.332656	-65.137752
692.492578	-64.975529
692.652575	-64.826194
692.812645	-64.690139
692.972789	-64.567660
693.133007	-64.458872
693.293300	-64.363697
693.453666	-64.281909
693.614107	-64.213254
693.774622	-64.157631
693.935211	-64.115225
694.095875	-64.086541
694.256613	-64.072275
694.417426	-64.073120
694.578313	-64.089571
694.739274	-64.121830
694.900311	-64.169879
695.061421	-64.233717
695.222607	-64.313666
695.383868	-64.410584
695.545203	-64.525978
695.706613	-64.661854
695.868098	-64.820467
696.029658	-65.004050
696.191293	-65.214674
696.353003	-65.454290
696.514789	-65.724868
696.676649	-66.028664
696.838585	-66.368398
697.000596	-66.747277
697.162682	-67.168965
697.324844	-67.637538
697.487081	-68.157594
697.649394	-68.734586
697.811782	-69.375504
697.974246	-70.089781
698.136786	-70.890385
698.299401	-71.795230
698.462092	-72.829190
698.624859	-74.027618
698.787702	-75.442917
698.950621	-77.158104
699.113616	-79.316225
699.276686	-82.190299
699.439833	-86.347106
699.603056	-92.056183
699.766355	-89.871937
699.929731	-84.422716
700.093183	-80.747744
700.256711	-78.106647
700.420315	-76.068323
700.583996	-74.418819
700.747754	-73.039387
700.911588	-71.857528
701.075499	-70.826044
701.239486	-69.913028
701.403550	-69.096390
701.567691	-68.360445
701.731909	-67.693608
701.896203	-67.086825
702.060575	-66.532594
702.225024	-66.024596
702.389549	-65.557586
702.554152	-65.127456
702.718832	-64.731216
702.883589	-64.366808
703.048424	-64.032809
703.213335	-63.728074
703.378324	-63.451487
703.543391	-63.201841
703.708535	-62.977833
703.873757	-62.778101
704.039056	-62.601225
704.204433	-62.445713
704.369887	-62.309959
704.535420	-62.192220
704.701030	-62.090691
704.866718	-62.003685
705.032484	-61.929822
705.198328	-61.868146
705.364250	-61.818104
705.530250	-61.779342
705.696328	-61.751476
705.862485	-61.733877
706.028720	-61.725620
706.195033	-61.725659
706.361424	-61.733058
706.527894	-61.747222
706.694442	-61.767974
706.861069	-61.795453
707.027775	-61.829851
707.194559	-61.871134
707.361422	-61.918915
707.528363	-61.972474
707.695384	-62.030957
707.862483	-62.093564
708.029661	-62.159662
708.196918	-62.228812
708.364254	-62.300705
708.531670	-62.375164
708.699164	-62.452232
708.866738	-62.532288
709.034391	-62.616141
709.202123	-62.704939
709.369935	-62.799835
709.537826	-62.901564
709.705796	-63.010105
709.873847	-63.124649
710.041976	-63.243972
710.210186	-63.367068
710.378475	-63.493837
710.546844	-63.625406
710.715292	-63.763944
710.883821	-63.912058
711.052429	-64.072103
711.221118	-64.245702
711.389887	-64.433727
711.558735	-64.636798
711.727664	-64.855960
711.896673	-65.093257
712.065763	-65.351979
712.234932	-65.636390
712.404183	-65.951327
712.573513	-66.301845
712.742924	-66.693041
712.912416	-67.130265
713.081988	-67.619496
713.251641	-68.167747
713.421375	-68.783347
713.591190	-69.476089
713.761085	-70.257366
713.931061	-71.140526
714.101119	-72.141180
714.271257	-73.276439
714.441476	-74.559974
714.611777	-75.984132
714.782159	-77.467748
714.952622	-78.742860
715.123166	-79.287647
715.293792	-78.724318
715.464499	-77.343772
715.635288	-75.690435
715.806158	-74.075312
715.977110	-72.600381
716.148143	-71.279422
716.319259	-70.099096
716.490456	-69.040897
716.661735	-68.087667
716.833096	-67.224904
717.004538	-66.440501
717.176063	-65.724209
717.347670	-65.067242
717.519359	-64.462048
717.691130	-63.902173
717.862984	-63.382137
718.034920	-62.897275
718.206938	-62.443612
718.379039	-62.017827
718.551222	-61.617281
718.723488	-61.240122
718.895836	-60.885266
719.068267	-60.552272
719.240781	-60.241072
719.413377	-59.951590
719.586057	-59.683426
719.758819	-59.435675
719.931664	-59.206968
720.104593	-58.995728
720.277604	-58.800486
720.450699	-58.620150
720.623876	-58.454086
720.797137	-58.302077
720.970482	-58.164162
721.143910	-58.040444
721.317421	-57.930955
721.491016	-57.835663
721.664694	-57.754519
721.838456	-57.687470
722.012302	-57.634459
722.186231	-57.595386
722.360244	-57.570095
722.534342	-57.558415
722.708523	-57.560308
722.882788	-57.576049
723.057137	-57.606321
723.231570	-57.652175
723.406088	-57.714788
723.580689	-57.795131
723.755375	-57.893658
723.930146	-58.010186
724.105000	-58.144020
724.279940	-58.294323
724.454963	-58.460593
724.630072	-58.643033
724.805265	-58.842715
724.980543	-59.061451
725.155905	-59.301466
725.331353	-59.565054
725.506885	-59.854387
725.682503	-60.171486
725.858205	-60.518353
726.033993	-60.897150
726.209865	-61.310328
726.385823	-61.760662
726.561866	-62.251200
726.737995	-62.785269
726.914209	-63.366617
727.090508	-63.999727
727.266893	-64.690173
727.443364	-65.444917
727.619920	-66.272384
727.796562	-67.181971
727.973290	-68.182809
728.150103	-69.280977
728.327003	-70.473276
