# 2022-03-16_11.53.50
# shape = sech2
# FWHM_ps = 0.2
# carrier_nm = 1542
# frep_MHz = 12126
# pow_mW = 4000
# GDD = 0.0
# propa_len = 0.15
# untap_len = 0.01
# taper_len = 0.13
# waist_len = 0.0
# uptap_len = 0.01
# untap_scale = 1.0
# waist_scale = 0.25
# workingDir = NL_20110305_12 (Spirou)
# axis = slow
# window_ps = 10.0
# steps = 200
# points = 13000
# 
# wavelength [nm]	 power spectral density [dB]
1000.248639	-55.828108
1000.582480	-55.720855
1000.916545	-55.615597
1001.250832	-55.509428
1001.585343	-55.402346
1001.920077	-55.294357
1002.255035	-55.185464
1002.590218	-55.075656
1002.925624	-54.964918
1003.261255	-54.853260
1003.597111	-54.740773
1003.933192	-54.627651
1004.269497	-54.514180
1004.606029	-54.400687
1004.942785	-54.287479
1005.279768	-54.174800
1005.616977	-54.062812
1005.954412	-53.951603
1006.292074	-53.841201
1006.629962	-53.731602
1006.968077	-53.622793
1007.306420	-53.514768
1007.644990	-53.407530
1007.983787	-53.301090
1008.322813	-53.195480
1008.662067	-53.090771
1009.001549	-52.987082
1009.341259	-52.884565
1009.681199	-52.783358
1010.021367	-52.683553
1010.361765	-52.585175
1010.702392	-52.488197
1011.043250	-52.392548
1011.384337	-52.298128
1011.725654	-52.204803
1012.067202	-52.112387
1012.408980	-52.020636
1012.750989	-51.929257
1013.093230	-51.837963
1013.435702	-51.746532
1013.778405	-51.654861
1014.121341	-51.562986
1014.464508	-51.471040
1014.807908	-51.379189
1015.151540	-51.287567
1015.495405	-51.196270
1015.839503	-51.105369
1016.183835	-51.014939
1016.528400	-50.925066
1016.873198	-50.835821
1017.218231	-50.747210
1017.563498	-50.659140
1017.908999	-50.571405
1018.254735	-50.483720
1018.600707	-50.395766
1018.946913	-50.307261
1019.293354	-50.217989
1019.640032	-50.127809
1019.986945	-50.036637
1020.334094	-49.944428
1020.681480	-49.851189
1021.029102	-49.757005
1021.376961	-49.662058
1021.725058	-49.566611
1022.073391	-49.470956
1022.421962	-49.375359
1022.770772	-49.280032
1023.119819	-49.185135
1023.469104	-49.090799
1023.818628	-48.997138
1024.168391	-48.904245
1024.518393	-48.812185
1024.868634	-48.720987
1025.219115	-48.630642
1025.569836	-48.541117
1025.920796	-48.452375
1026.271997	-48.364393
1026.623438	-48.277167
1026.975121	-48.190693
1027.327044	-48.104958
1027.679208	-48.019951
1028.031614	-47.935679
1028.384262	-47.852189
1028.737152	-47.769559
1029.090284	-47.687877
1029.443659	-47.607209
1029.797276	-47.527575
1030.151137	-47.448946
1030.505240	-47.371269
1030.859587	-47.294490
1031.214178	-47.218560
1031.569013	-47.143420
1031.924093	-47.068967
1032.279417	-46.995048
1032.634985	-46.921482
1032.990799	-46.848097
1033.346858	-46.774763
1033.703162	-46.701400
1034.059712	-46.627958
1034.416509	-46.554399
1034.773551	-46.480674
1035.130841	-46.406729
1035.488377	-46.332520
1035.846160	-46.258021
1036.204190	-46.183216
1036.562468	-46.108084
1036.920994	-46.032599
1037.279768	-45.956738
1037.638790	-45.880503
1037.998061	-45.803917
1038.357581	-45.727012
1038.717350	-45.649807
1039.077368	-45.572289
1039.437636	-45.494428
1039.798154	-45.416208
1040.158922	-45.337662
1040.519940	-45.258870
1040.881209	-45.179932
1041.242729	-45.100929
1041.604501	-45.021914
1041.966524	-44.942928
1042.328798	-44.864034
1042.691325	-44.785339
1043.054103	-44.706993
1043.417135	-44.629156
1043.780419	-44.551967
1044.143956	-44.475528
1044.507746	-44.399931
1044.871791	-44.325272
1045.236088	-44.251645
1045.600641	-44.179112
1045.965447	-44.107678
1046.330508	-44.037313
1046.695824	-43.967984
1047.061395	-43.899678
1047.427222	-43.832396
1047.793304	-43.766113
1048.159642	-43.700743
1048.526237	-43.636132
1048.893088	-43.572102
1049.260196	-43.508509
1049.627561	-43.445269
1049.995183	-43.382345
1050.363063	-43.319698
1050.731201	-43.257271
1051.099597	-43.195004
1051.468251	-43.132863
1051.837164	-43.070866
1052.206336	-43.009063
1052.575767	-42.947488
1052.945458	-42.886119
1053.315409	-42.824876
1053.685619	-42.763658
1054.056090	-42.702380
1054.426821	-42.640977
1054.797814	-42.579378
1055.169067	-42.517486
1055.540582	-42.455178
1055.912359	-42.392332
1056.284398	-42.328847
1056.656698	-42.264647
1057.029262	-42.199655
1057.402088	-42.133778
1057.775177	-42.066918
1058.148530	-41.999008
1058.522146	-41.930035
1058.896027	-41.860032
1059.270171	-41.789065
1059.644580	-41.717215
1060.019254	-41.644585
1060.394193	-41.571320
1060.769397	-41.497601
1061.144867	-41.423618
1061.520602	-41.349539
1061.896604	-41.275510
1062.272872	-41.201692
1062.649407	-41.128306
1063.026210	-41.055621
1063.403279	-40.983910
1063.780616	-40.913384
1064.158221	-40.844176
1064.536094	-40.776370
1064.914235	-40.710047
1065.292645	-40.645308
1065.671325	-40.582247
1066.050273	-40.520902
1066.429491	-40.461253
1066.808979	-40.403263
1067.188738	-40.346917
1067.568766	-40.292209
1067.949066	-40.239084
1068.329636	-40.187383
1068.710478	-40.136846
1069.091592	-40.087181
1069.472977	-40.038120
1069.854635	-39.989441
1070.236565	-39.940939
1070.618768	-39.892382
1071.001243	-39.843518
1071.383993	-39.794113
1071.767016	-39.743985
1072.150313	-39.692993
1072.533884	-39.640992
1072.917730	-39.587820
1073.301850	-39.533332
1073.686246	-39.477454
1074.070917	-39.420201
1074.455864	-39.361644
1074.841087	-39.301856
1075.226586	-39.240895
1075.612362	-39.178829
1075.998415	-39.115776
1076.384745	-39.051905
1076.771353	-38.987391
1077.158238	-38.922392
1077.545401	-38.857054
1077.932843	-38.791541
1078.320564	-38.726034
1078.708564	-38.660708
1079.096842	-38.595694
1079.485401	-38.531085
1079.874240	-38.466965
1080.263358	-38.403439
1080.652757	-38.340630
1081.042438	-38.278627
1081.432399	-38.217462
1081.822641	-38.157121
1082.213166	-38.097577
1082.603972	-38.038815
1082.995061	-37.980816
1083.386433	-37.923543
1083.778087	-37.866946
1084.170025	-37.810993
1084.562246	-37.755675
1084.954751	-37.700984
1085.347541	-37.646870
1085.740615	-37.593235
1086.133973	-37.539967
1086.527617	-37.486987
1086.921546	-37.434254
1087.315761	-37.381731
1087.710262	-37.329361
1088.105050	-37.277067
1088.500124	-37.224782
1088.895485	-37.172460
1089.291134	-37.120059
1089.687070	-37.067533
1090.083294	-37.014828
1090.479806	-36.961921
1090.876607	-36.908831
1091.273696	-36.855599
1091.671075	-36.802261
1092.068744	-36.748833
1092.466702	-36.695331
1092.864950	-36.641780
1093.263489	-36.588213
1093.662319	-36.534665
1094.061440	-36.481165
1094.460852	-36.427762
1094.860555	-36.374519
1095.260551	-36.321495
1095.660840	-36.268707
1096.061421	-36.216128
1096.462295	-36.163719
1096.863462	-36.111451
1097.264923	-36.059300
1097.666678	-36.007220
1098.068727	-35.955144
1098.471071	-35.903009
1098.873710	-35.850780
1099.276644	-35.798430
1099.679874	-35.745911
1100.083400	-35.693149
1100.487222	-35.640072
1100.891340	-35.586650
1101.295756	-35.532885
1101.700468	-35.478784
1102.105478	-35.424349
1102.510787	-35.369597
1102.916393	-35.314580
1103.322298	-35.259376
1103.728502	-35.204048
1104.135005	-35.148640
1104.541807	-35.093191
1104.948909	-35.037763
1105.356312	-34.982428
1105.764015	-34.927241
1106.172019	-34.872228
1106.580324	-34.817397
1106.988931	-34.762753
1107.397840	-34.708294
1107.807051	-34.653987
1108.216564	-34.599778
1108.626380	-34.545611
1109.036500	-34.491445
1109.446923	-34.437246
1109.857649	-34.382967
1110.268680	-34.328539
1110.680016	-34.273897
1111.091657	-34.219002
1111.503602	-34.163844
1111.915854	-34.108424
1112.328411	-34.052757
1112.741275	-33.996870
1113.154445	-33.940810
1113.567922	-33.884637
1113.981706	-33.828412
1114.395798	-33.772201
1114.810198	-33.716073
1115.224906	-33.660105
1115.639923	-33.604372
1116.055249	-33.548943
1116.470884	-33.493886
1116.886829	-33.439250
1117.303084	-33.385068
1117.719650	-33.331349
1118.136526	-33.278095
1118.553713	-33.225302
1118.971212	-33.172951
1119.389022	-33.121002
1119.807145	-33.069399
1120.225580	-33.018091
1120.644328	-32.967030
1121.063389	-32.916158
1121.482763	-32.865405
1121.902452	-32.814697
1122.322454	-32.763976
1122.742771	-32.713200
1123.163404	-32.662334
1123.584351	-32.611346
1124.005614	-32.560224
1124.427193	-32.508979
1124.849089	-32.457631
1125.271301	-32.406192
1125.693830	-32.354663
1126.116677	-32.303053
1126.539842	-32.251379
1126.963324	-32.199664
1127.387126	-32.147923
1127.811246	-32.096157
1128.235685	-32.044365
1128.660444	-31.992532
1129.085522	-31.940629
1129.510922	-31.888610
1129.936641	-31.836421
1130.362682	-31.784019
1130.789044	-31.731375
1131.215728	-31.678465
1131.642734	-31.625275
1132.070063	-31.571797
1132.497714	-31.518031
1132.925689	-31.463983
1133.353987	-31.409665
1133.782610	-31.355090
1134.211556	-31.300279
1134.640827	-31.245273
1135.070424	-31.190131
1135.500345	-31.134916
1135.930593	-31.079682
1136.361166	-31.024475
1136.792067	-30.969338
1137.223294	-30.914305
1137.654848	-30.859394
1138.086730	-30.804604
1138.518940	-30.749937
1138.951479	-30.695403
1139.384346	-30.641015
1139.817543	-30.586776
1140.251069	-30.532674
1140.684925	-30.478703
1141.119111	-30.424857
1141.553628	-30.371130
1141.988475	-30.317516
1142.423655	-30.264022
1142.859166	-30.210676
1143.295009	-30.157511
1143.731185	-30.104556
1144.167694	-30.051831
1144.604536	-29.999359
1145.041711	-29.947157
1145.479221	-29.895232
1145.917065	-29.843584
1146.355245	-29.792209
1146.793759	-29.741095
1147.232609	-29.690224
1147.671795	-29.639571
1148.111317	-29.589106
1148.551177	-29.538793
1148.991373	-29.488594
1149.431907	-29.438473
1149.872779	-29.388398
1150.313989	-29.338332
1150.755538	-29.288243
1151.197426	-29.238114
1151.639653	-29.187936
1152.082220	-29.137708
1152.525128	-29.087426
1152.968376	-29.037107
1153.411966	-28.986785
1153.855897	-28.936491
1154.300169	-28.886243
1154.744784	-28.836061
1155.189742	-28.785974
1155.635042	-28.736002
1156.080687	-28.686147
1156.526674	-28.636403
1156.973007	-28.586778
1157.419683	-28.537285
1157.866705	-28.487915
1158.314072	-28.438642
1158.761786	-28.389442
1159.209845	-28.340294
1159.658251	-28.291156
1160.107004	-28.241977
1160.556104	-28.192722
1161.005553	-28.143381
1161.455349	-28.093942
1161.905494	-28.044387
1162.355989	-27.994709
1162.806832	-27.944916
1163.258026	-27.895015
1163.709570	-27.845011
1164.161464	-27.794928
1164.613710	-27.744812
1165.066307	-27.694709
1165.519256	-27.644651
1165.972558	-27.594664
1166.426212	-27.544776
1166.880219	-27.495014
1167.334580	-27.445398
1167.789295	-27.395940
1168.244364	-27.346638
1168.699788	-27.297478
1169.155567	-27.248431
1169.611702	-27.199468
1170.068193	-27.150554
1170.525041	-27.101661
1170.982245	-27.052763
1171.439807	-27.003825
1171.897726	-26.954793
1172.356004	-26.905600
1172.814640	-26.856191
1173.273635	-26.806535
1173.732989	-26.756618
1174.192703	-26.706440
1174.652778	-26.656014
1175.113213	-26.605360
1175.574009	-26.554494
1176.035167	-26.503435
1176.496687	-26.452215
1176.958569	-26.400886
1177.420814	-26.349506
1177.883422	-26.298137
1178.346394	-26.246843
1178.809730	-26.195683
1179.273430	-26.144705
1179.737496	-26.093956
1180.201927	-26.043478
1180.666723	-25.993301
1181.131886	-25.943437
1181.597416	-25.893887
1182.063312	-25.844641
1182.529576	-25.795673
1182.996209	-25.746945
1183.463209	-25.698417
1183.930579	-25.650045
1184.398317	-25.601769
1184.866426	-25.553516
1185.334904	-25.505212
1185.803754	-25.456782
1186.272974	-25.408148
1186.742566	-25.359237
1187.212529	-25.309992
1187.682865	-25.260364
1188.153574	-25.210309
1188.624656	-25.159794
1189.096112	-25.108788
1189.567942	-25.057271
1190.040147	-25.005231
1190.512726	-24.952684
1190.985681	-24.899668
1191.459012	-24.846231
1191.932720	-24.792428
1192.406804	-24.738318
1192.881265	-24.683957
1193.356104	-24.629402
1193.831322	-24.574712
1194.306918	-24.519956
1194.782893	-24.465205
1195.259248	-24.410527
1195.735982	-24.355982
1196.213097	-24.301628
1196.690593	-24.247513
1197.168471	-24.193677
1197.646730	-24.140151
1198.125371	-24.086959
1198.604395	-24.034121
1199.083803	-23.981646
1199.563594	-23.929540
1200.043769	-23.877801
1200.524329	-23.826420
1201.005273	-23.775380
1201.486604	-23.724661
1201.968320	-23.674245
1202.450422	-23.624112
1202.932912	-23.574239
1203.415789	-23.524605
1203.899054	-23.475195
1204.382707	-23.425997
1204.866748	-23.377002
1205.351179	-23.328205
1205.836000	-23.279608
1206.321211	-23.231217
1206.806812	-23.183047
1207.292805	-23.135118
1207.779189	-23.087455
1208.265965	-23.040079
1208.753134	-22.993014
1209.240696	-22.946282
1209.728651	-22.899912
1210.217000	-22.853942
1210.705744	-22.808410
1211.194883	-22.763349
1211.684417	-22.718784
1212.174347	-22.674734
1212.664673	-22.631218
1213.155396	-22.588254
1213.646516	-22.545860
1214.138034	-22.504049
1214.629951	-22.462819
1215.122266	-22.422159
1215.614980	-22.382055
1216.108095	-22.342490
1216.601609	-22.303450
1217.095524	-22.264912
1217.589841	-22.226843
1218.084559	-22.189201
1218.579679	-22.151944
1219.075202	-22.115034
1219.571128	-22.078430
1220.067458	-22.042090
1220.564191	-22.005966
1221.061330	-21.970002
1221.558874	-21.934143
1222.056823	-21.898343
1222.555178	-21.862563
1223.053940	-21.826768
1223.553109	-21.790925
1224.052686	-21.754997
1224.552671	-21.718947
1225.053065	-21.682738
1225.553867	-21.646341
1226.055079	-21.609738
1226.556702	-21.572920
1227.058735	-21.535879
1227.561179	-21.498610
1228.064035	-21.461097
1228.567303	-21.423329
1229.070983	-21.385301
1229.575077	-21.347018
1230.079585	-21.308490
1230.584506	-21.269732
1231.089842	-21.230750
1231.595594	-21.191544
1232.101761	-21.152116
1232.608345	-21.112475
1233.115345	-21.072629
1233.622762	-21.032589
1234.130597	-20.992367
1234.638851	-20.951974
1235.147523	-20.911422
1235.656615	-20.870732
1236.166126	-20.829913
1236.676058	-20.788967
1237.186411	-20.747892
1237.697185	-20.706694
1238.208381	-20.665391
1238.719999	-20.624009
1239.232040	-20.582564
1239.744505	-20.541060
1240.257394	-20.499497
1240.770708	-20.457883
1241.284446	-20.416235
1241.798610	-20.374573
1242.313201	-20.332910
1242.828218	-20.291253
1243.343662	-20.249608
1243.859534	-20.207984
1244.375834	-20.166389
1244.892563	-20.124829
1245.409721	-20.083307
1245.927309	-20.041829
1246.445327	-20.000399
1246.963777	-19.959017
1247.482657	-19.917672
1248.001970	-19.876355
1248.521716	-19.835063
1249.041894	-19.793802
1249.562506	-19.752568
1250.083553	-19.711348
1250.605034	-19.670113
1251.126950	-19.628845
1251.649302	-19.587531
1252.172091	-19.546168
1252.695316	-19.504738
1253.218979	-19.463212
1253.743079	-19.421558
1254.267619	-19.379761
1254.792597	-19.337811
1255.318015	-19.295703
1255.843874	-19.253424
1256.370173	-19.210954
1256.896913	-19.168276
1257.424095	-19.125386
1257.951720	-19.082292
1258.479787	-19.039001
1259.008298	-18.995527
1259.537254	-18.951880
1260.066654	-18.908074
1260.596499	-18.864121
1261.126790	-18.820038
1261.657527	-18.775853
1262.188711	-18.731607
1262.720342	-18.687344
1263.252422	-18.643105
1263.784950	-18.598919
1264.317928	-18.554820
1264.851355	-18.510849
1265.385232	-18.467058
1265.919560	-18.423497
1266.454340	-18.380211
1266.989572	-18.337244
1267.525256	-18.294636
1268.061394	-18.252428
1268.597985	-18.210657
1269.135031	-18.169353
1269.672531	-18.128545
1270.210487	-18.088255
1270.748899	-18.048499
1271.287768	-18.009283
1271.827094	-17.970605
1272.366877	-17.932459
1272.907119	-17.894837
1273.447820	-17.857721
1273.988981	-17.821084
1274.530601	-17.784886
1275.072683	-17.749088
1275.615226	-17.713646
1276.158230	-17.678513
1276.701697	-17.643632
1277.245627	-17.608946
1277.790021	-17.574399
1278.334879	-17.539938
1278.880202	-17.505508
1279.425991	-17.471050
1279.972245	-17.436511
1280.518966	-17.401845
1281.066155	-17.367019
1281.613811	-17.332004
1282.161936	-17.296775
1282.710529	-17.261315
1283.259593	-17.225612
1283.809126	-17.189664
1284.359131	-17.153475
1284.909607	-17.117060
1285.460555	-17.080448
1286.011976	-17.043676
1286.563870	-17.006782
1287.116237	-16.969804
1287.669080	-16.932788
1288.222397	-16.895796
1288.776191	-16.858893
1289.330460	-16.822146
1289.885207	-16.785613
1290.440431	-16.749356
1290.996133	-16.713442
1291.552314	-16.677941
1292.108975	-16.642912
1292.666115	-16.608410
1293.223737	-16.574488
1293.781839	-16.541195
1294.340424	-16.508577
1294.899491	-16.476667
1295.459041	-16.445490
1296.019075	-16.415067
1296.579593	-16.385410
1297.140597	-16.356525
1297.702086	-16.328403
1298.264061	-16.301027
1298.826524	-16.274371
1299.389474	-16.248410
1299.952912	-16.223113
1300.516839	-16.198444
1301.081255	-16.174359
1301.646162	-16.150807
1302.211559	-16.127734
1302.777448	-16.105090
1303.343829	-16.082826
1303.910702	-16.060889
1304.478069	-16.039222
1305.045930	-16.017770
1305.614285	-15.996485
1306.183136	-15.975324
1306.752483	-15.954245
1307.322326	-15.933213
1307.892666	-15.912196
1308.463504	-15.891173
1309.034841	-15.870126
1309.606677	-15.849039
1310.179012	-15.827907
1310.751849	-15.806741
1311.325186	-15.785553
1311.899025	-15.764364
1312.473366	-15.743198
1313.048211	-15.722092
1313.623559	-15.701090
1314.199412	-15.680238
1314.775770	-15.659582
1315.352634	-15.639177
1315.930004	-15.619078
1316.507881	-15.599335
1317.086266	-15.579990
1317.665159	-15.561085
1318.244562	-15.542666
1318.824474	-15.524768
1319.404897	-15.507417
1319.985831	-15.490625
1320.567276	-15.474399
1321.149234	-15.458740
1321.731706	-15.443638
1322.314691	-15.429071
1322.898190	-15.415002
1323.482205	-15.401389
1324.066736	-15.388180
1324.651783	-15.375316
1325.237347	-15.362726
1325.823430	-15.350329
1326.410031	-15.338037
1326.997151	-15.325761
1327.584791	-15.313408
1328.172952	-15.300880
1328.761634	-15.288074
1329.350839	-15.274893
1329.940566	-15.261249
1330.530817	-15.247061
1331.121592	-15.232248
1331.712891	-15.216735
1332.304716	-15.200468
1332.897068	-15.183408
1333.489946	-15.165523
1334.083352	-15.146789
1334.677287	-15.127201
1335.271750	-15.106771
1335.866744	-15.085524
1336.462268	-15.063493
1337.058323	-15.040721
1337.654910	-15.017266
1338.252029	-14.993197
1338.849682	-14.968585
1339.447869	-14.943511
1340.046591	-14.918063
1340.645848	-14.892334
1341.245641	-14.866414
1341.845972	-14.840390
1342.446840	-14.814352
1343.048246	-14.788387
1343.650191	-14.762574
1344.252677	-14.736987
1344.855702	-14.711690
1345.459269	-14.686738
1346.063379	-14.662174
1346.668030	-14.638035
1347.273226	-14.614346
1347.878965	-14.591122
1348.485250	-14.568364
1349.092080	-14.546063
1349.699456	-14.524201
1350.307380	-14.502750
1350.915851	-14.481671
1351.524871	-14.460914
1352.134441	-14.440420
1352.744560	-14.420127
1353.355231	-14.399967
1353.966453	-14.379860
1354.578227	-14.359725
1355.190555	-14.339482
1355.803436	-14.319053
1356.416872	-14.298361
1357.030863	-14.277328
1357.645411	-14.255881
1358.260515	-14.233957
1358.876177	-14.211504
1359.492397	-14.188473
1360.109176	-14.164825
1360.726516	-14.140536
1361.344416	-14.115601
1361.962877	-14.090022
1362.581901	-14.063814
1363.201487	-14.037007
1363.821637	-14.009649
1364.442352	-13.981801
1365.063632	-13.953533
1365.685478	-13.924929
1366.307891	-13.896082
1366.930871	-13.867102
1367.554420	-13.838102
1368.178538	-13.809202
1368.803226	-13.780526
1369.428485	-13.752203
1370.054315	-13.724360
1370.680717	-13.697117
1371.307693	-13.670593
1371.935242	-13.644897
1372.563366	-13.620133
1373.192065	-13.596391
1373.821341	-13.573752
1374.451193	-13.552286
1375.081623	-13.532047
1375.712632	-13.513074
1376.344221	-13.495386
1376.976389	-13.478984
1377.609139	-13.463853
1378.242470	-13.449952
1378.876384	-13.437226
1379.510881	-13.425597
1380.145963	-13.414979
1380.781629	-13.405269
1381.417881	-13.396349
1382.054720	-13.388084
1382.692147	-13.380335
1383.330161	-13.372952
1383.968765	-13.365772
1384.607959	-13.358624
1385.247743	-13.351335
1385.888119	-13.343741
1386.529087	-13.335675
1387.170648	-13.326980
1387.812804	-13.317514
1388.455554	-13.307156
1389.098899	-13.295796
1389.742842	-13.283340
1390.387381	-13.269711
1391.032519	-13.254853
1391.678256	-13.238729
1392.324592	-13.221318
1392.971529	-13.202623
1393.619068	-13.182673
1394.267208	-13.161527
1394.915952	-13.139264
1395.565300	-13.115981
1396.215253	-13.091799
