# 2022-03-22_09.39.40
# shape = sech2
# FWHM_ps = 0.11
# carrier_nm = 1542
# frep_MHz = 12126
# pow_mW = 8000
# GDD = 0.0
# propa_len = 0.11177777777777778
# untap_len = 0.01
# taper_len = 0.05177777777777778
# waist_len = 0.02
# uptap_len = 0.02
# untap_scale = 1.0
# waist_scale = 0.368421052631579
# workingDir = NL_20110305_12 (Spirou)
# axis = slow
# window_ps = 10.0
# steps = 200
# points = 21700
# 
# wavelength [nm]	 power spectral density [dB]
600.043425	-143.069694
600.163550	-144.465192
600.283723	-145.516867
600.403943	-145.636417
600.524212	-144.744051
600.644529	-143.394028
600.764895	-142.069551
600.885308	-140.968655
601.005770	-140.138834
601.126280	-139.576166
601.246839	-139.263468
601.367446	-139.181952
601.488101	-139.313384
601.608804	-139.638305
601.729557	-140.131338
601.850357	-140.752609
601.971206	-141.433927
602.092104	-142.062105
602.213050	-142.476099
602.334045	-142.512564
602.455089	-142.100799
602.576181	-141.312009
602.697322	-140.296133
602.818511	-139.191453
602.939749	-138.088994
603.061036	-137.039317
603.182372	-136.068625
603.303757	-135.190675
603.425191	-134.413501
603.546673	-133.742824
603.668204	-133.183655
603.789785	-132.740974
603.911414	-132.419939
604.033092	-132.225808
604.154820	-132.163452
604.276596	-132.236213
604.398422	-132.443633
604.520297	-132.777117
604.642220	-133.212299
604.764193	-133.697395
604.886216	-134.141169
605.008287	-134.415726
605.130408	-134.398655
605.252578	-134.046929
605.374798	-133.429963
605.497066	-132.679323
605.619385	-131.917800
605.741752	-131.228363
605.864169	-130.657256
605.986636	-130.226879
606.109152	-129.946691
606.231718	-129.820150
606.354333	-129.848595
606.476998	-130.033154
606.599712	-130.375471
606.722476	-130.877514
606.845290	-131.540100
606.968154	-132.358918
607.091067	-133.315617
607.214030	-134.359793
607.337043	-135.379166
607.460106	-136.175383
607.583219	-136.514267
607.706381	-136.294230
607.829594	-135.649032
607.952856	-134.820403
608.076169	-133.999706
608.199531	-133.292075
608.322944	-132.744025
608.446407	-132.372100
608.569920	-132.179276
608.693483	-132.162645
608.817096	-132.316467
608.940759	-132.632843
609.064473	-133.101099
609.188237	-133.706459
609.312051	-134.428501
609.435916	-135.240225
609.559831	-136.109200
609.683796	-137.002579
609.807812	-137.896718
609.931878	-138.788860
610.055995	-139.705276
610.180162	-140.701978
610.304380	-141.860845
610.428648	-143.289918
610.552967	-145.139714
610.677337	-147.658494
610.801757	-151.368847
610.926228	-157.768381
611.050750	-163.555472
611.175323	-154.797310
611.299946	-150.170200
611.424620	-147.347310
611.549345	-145.428956
611.674121	-144.073603
611.798948	-143.127394
611.923826	-142.519653
612.048755	-142.224629
612.173734	-142.244495
612.298765	-142.599102
612.423847	-143.311992
612.548980	-144.367654
612.674165	-145.564214
612.799400	-146.200225
612.924687	-145.353090
613.050025	-143.321191
613.175414	-141.079737
613.300854	-139.092284
613.426346	-137.452251
613.551889	-136.143152
613.677484	-135.128190
613.803130	-134.371985
613.928827	-133.843938
614.054576	-133.517413
614.180377	-133.368494
614.306229	-133.375312
614.432132	-133.518341
614.558087	-133.781891
614.684094	-134.156855
614.810153	-134.644425
614.936263	-135.260104
615.062425	-136.037577
615.188639	-137.033187
615.314904	-138.333925
615.441222	-140.075927
615.567591	-142.490464
615.694012	-146.016700
615.820486	-151.318776
615.947011	-153.342091
616.073588	-148.134321
616.200217	-144.491733
616.326898	-142.271862
616.453632	-140.965062
616.580417	-140.334888
616.707255	-140.276635
616.834144	-140.751826
616.961086	-141.747105
617.088081	-143.190284
617.215127	-144.673232
617.342226	-145.058139
617.469378	-143.663253
617.596581	-141.539686
617.723837	-139.587518
617.851146	-138.033137
617.978507	-136.868264
618.105920	-136.039435
618.233386	-135.491518
618.360905	-135.173587
618.488476	-135.036869
618.616100	-135.031848
618.743777	-135.106590
618.871506	-135.207658
618.999288	-135.284647
619.127123	-135.297979
619.255011	-135.227116
619.382951	-135.074979
619.510945	-134.866124
619.638991	-134.640207
619.767090	-134.444687
619.895243	-134.329831
620.023448	-134.347011
620.151706	-134.550100
620.280017	-134.999915
620.408382	-135.772931
620.536799	-136.978601
620.665270	-138.798339
620.793794	-141.590127
620.922371	-146.237937
621.051002	-154.238800
621.179686	-148.767080
621.308423	-142.974299
621.437213	-139.685374
621.566057	-137.626629
621.694954	-136.335584
621.823905	-135.612900
621.952909	-135.368043
622.081967	-135.570257
622.211079	-136.235467
622.340244	-137.435000
622.469462	-139.336236
622.598735	-142.333610
622.728061	-147.568577
622.857441	-156.913962
622.986874	-147.815792
623.116361	-142.095199
623.245903	-138.694566
623.375498	-136.357475
623.505147	-134.646425
623.634850	-133.368024
623.764606	-132.428203
623.894417	-131.782818
624.024282	-131.417226
624.154201	-131.337296
624.284174	-131.566413
624.414202	-132.146546
624.544283	-133.141701
624.674419	-134.635890
624.804609	-136.674684
624.934853	-138.871276
625.065151	-139.384009
625.195504	-137.220246
625.325911	-134.471171
625.456373	-132.168317
625.586889	-130.385649
625.717460	-129.035688
625.848085	-128.035021
625.978764	-127.321394
626.109498	-126.849874
626.240287	-126.588379
626.371131	-126.514920
626.502029	-126.616205
626.632982	-126.886887
626.763989	-127.328720
626.895052	-127.948346
627.026169	-128.751019
627.157341	-129.724096
627.288568	-130.797758
627.419850	-131.772102
627.551187	-132.275682
627.682579	-131.985501
627.814026	-131.007914
627.945528	-129.749830
628.077085	-128.532064
628.208697	-127.503730
628.340364	-126.714648
628.472087	-126.173691
628.603865	-125.875075
628.735698	-125.807471
628.867586	-125.955208
628.999530	-126.294827
629.131529	-126.787444
629.263584	-127.367077
629.395694	-127.929211
629.527859	-128.335508
629.660080	-128.458338
629.792357	-128.253626
629.924689	-127.788562
630.057077	-127.188747
630.189520	-126.570253
630.322019	-126.012089
630.454574	-125.560523
630.587184	-125.241635
630.719851	-125.071385
630.852573	-125.061833
630.985351	-125.224769
631.118185	-125.573980
631.251075	-126.127154
631.384021	-126.908281
631.517023	-127.951643
631.650081	-129.309075
631.783195	-131.063712
631.916365	-133.357133
632.049592	-136.440263
632.182874	-140.664093
632.316213	-144.558895
632.449608	-141.997172
632.583059	-138.146528
632.716567	-135.443796
632.850131	-133.565076
632.983751	-132.226538
633.117428	-131.263423
633.251161	-130.575924
633.384951	-130.099022
633.518797	-129.787333
633.652700	-129.607095
633.786660	-129.531534
633.920676	-129.537892
634.054749	-129.605427
634.188879	-129.714119
634.323065	-129.844137
634.457308	-129.976181
634.591608	-130.092472
634.725965	-130.177742
634.860379	-130.219743
634.994850	-130.209125
635.129377	-130.139123
635.263962	-130.005890
635.398604	-129.809928
635.533303	-129.557829
635.668058	-129.262776
635.802872	-128.942941
635.937742	-128.618283
636.072669	-128.307234
636.207654	-128.024510
636.342696	-127.780303
636.477796	-127.580449
636.612953	-127.427077
636.748167	-127.319419
636.883439	-127.254646
637.018768	-127.228752
637.154155	-127.237606
637.289599	-127.278090
637.425101	-127.349000
637.560660	-127.451246
637.696277	-127.586881
637.831952	-127.756706
637.967685	-127.956559
638.103475	-128.173039
638.239324	-128.380180
638.375230	-128.539789
638.511194	-128.608722
638.647215	-128.553416
638.783295	-128.364862
638.919433	-128.063032
639.055629	-127.686952
639.191883	-127.278584
639.328195	-126.870915
639.464565	-126.483637
639.600994	-126.124083
639.737481	-125.790365
639.874025	-125.475075
640.010629	-125.169076
640.147290	-124.865240
640.284010	-124.561648
640.420789	-124.263526
640.557625	-123.983552
640.694521	-123.740759
640.831474	-123.558709
640.968487	-123.463580
641.105558	-123.482551
641.242687	-123.642519
641.379876	-123.968777
641.517123	-124.482552
641.654429	-125.194806
641.791793	-126.090027
641.929216	-127.087006
642.066699	-127.966856
642.204240	-128.340790
642.341840	-127.888427
642.479499	-126.726796
642.617217	-125.253629
642.754994	-123.772212
642.892830	-122.420796
643.030726	-121.246097
643.168680	-120.259491
643.306694	-119.462079
643.444767	-118.853876
643.582899	-118.436680
643.721091	-118.214736
643.859342	-118.194746
643.997652	-118.385754
644.136022	-118.798854
644.274451	-119.446074
644.412940	-120.336636
644.551488	-121.465723
644.690096	-122.783789
644.828763	-124.125840
644.967490	-125.120082
645.106277	-125.302864
645.245124	-124.603148
645.384030	-123.425764
645.522997	-122.164773
645.662023	-121.006501
645.801109	-120.008371
645.940255	-119.179831
646.079460	-118.519231
646.218726	-118.026530
646.358052	-117.706279
646.497438	-117.567343
646.636884	-117.622002
646.776391	-117.885314
646.915957	-118.374940
647.055584	-119.111268
647.195271	-120.117083
647.335019	-121.414152
647.474826	-123.007941
647.614695	-124.832799
647.754623	-126.597294
647.894612	-127.602756
648.034662	-127.260008
648.174772	-125.991736
648.314943	-124.530960
648.455174	-123.219290
648.595466	-122.137519
648.735819	-121.282720
648.876233	-120.635423
649.016707	-120.178135
649.157242	-119.898677
649.297838	-119.789171
649.438495	-119.843793
649.579213	-120.055941
649.719992	-120.414647
649.860832	-120.899848
650.001733	-121.476682
650.142695	-122.090796
650.283718	-122.670083
650.424803	-123.140200
650.565949	-123.452892
650.707156	-123.607252
650.848424	-123.640959
650.989754	-123.596793
651.131145	-123.492011
651.272597	-123.310011
651.414111	-123.017418
651.555687	-122.596732
651.697324	-122.071418
651.839022	-121.503225
651.980782	-120.967910
652.122604	-120.531940
652.264488	-120.242140
652.406433	-120.125529
652.548441	-120.192761
652.690510	-120.441102
652.832640	-120.855362
652.974833	-121.406520
653.117088	-122.048851
653.259405	-122.718411
653.401784	-123.338831
653.544224	-123.840838
653.686727	-124.191803
653.829293	-124.414480
653.971920	-124.575748
654.114609	-124.752591
654.257361	-124.995623
654.400175	-125.295880
654.543052	-125.550814
654.685991	-125.554855
654.828992	-125.096284
654.972056	-124.149625
655.115183	-122.910855
655.258372	-121.621122
655.401623	-120.440866
655.544937	-119.447000
655.688314	-118.667581
655.831754	-118.108045
655.975256	-117.764923
656.118822	-117.631997
656.262450	-117.702645
656.406141	-117.970255
656.549894	-118.427193
656.693711	-119.061866
656.837591	-119.852341
656.981534	-120.754068
657.125540	-121.680432
657.269610	-122.485881
657.413742	-122.988600
657.557938	-123.069720
657.702196	-122.774440
657.846519	-122.277495
657.990904	-121.764138
658.135353	-121.365625
658.279866	-121.161439
658.424441	-121.201612
658.569081	-121.526021
658.713784	-122.178410
658.858550	-123.218536
659.003381	-124.734491
659.148274	-126.841097
659.293232	-129.523342
659.438253	-131.549882
659.583339	-130.097179
659.728488	-126.866365
659.873701	-123.986851
660.018978	-121.689827
660.164318	-119.861518
660.309723	-118.399066
660.455192	-117.236149
660.600725	-116.332585
660.746323	-115.664697
660.891984	-115.219239
661.037710	-114.990088
661.183500	-114.976984
661.329354	-115.185885
661.475272	-115.630871
661.621255	-116.337995
661.767303	-117.352442
661.913415	-118.752506
662.059591	-120.679495
662.205833	-123.407929
662.352138	-127.494858
662.498509	-132.828265
662.644944	-130.102344
662.791443	-124.947676
662.938008	-121.482771
663.084638	-119.038443
663.231332	-117.218114
663.378091	-115.822052
663.524915	-114.739695
663.671804	-113.904304
663.818759	-113.272754
663.965778	-112.815639
664.112863	-112.512040
664.260012	-112.346635
664.407227	-112.308121
664.554507	-112.388453
664.701853	-112.582659
664.849264	-112.889108
664.996740	-113.310051
665.144282	-113.852211
665.291889	-114.526972
665.439561	-115.349239
665.587300	-116.332675
665.735103	-117.475253
665.882973	-118.720602
666.030908	-119.874299
666.178909	-120.523997
666.326976	-120.252116
666.475109	-119.138878
666.623307	-117.653879
666.771571	-116.159760
666.919902	-114.809244
667.068298	-113.641866
667.216761	-112.654652
667.365289	-111.832284
667.513884	-111.158217
667.662545	-110.618629
667.811272	-110.203757
667.960065	-109.908167
668.108925	-109.730475
668.257851	-109.672730
668.406843	-109.739603
668.555902	-109.937486
668.705027	-110.273560
668.854219	-110.754866
669.003478	-111.387394
669.152803	-112.175212
669.302195	-113.119872
669.451653	-114.220559
669.601179	-115.475778
669.750771	-116.887674
669.900430	-118.470351
670.050156	-120.263413
670.199949	-122.352419
670.349808	-124.901780
670.499735	-128.214053
670.649729	-132.745883
670.799790	-136.906361
670.949918	-133.979567
671.100114	-130.221779
671.250377	-127.802615
671.400707	-126.291715
671.551104	-125.346280
671.701569	-124.701298
671.852101	-124.105487
672.002700	-123.344463
672.153368	-122.328229
672.304102	-121.122626
672.454905	-119.865602
672.605775	-118.672795
672.756713	-117.607570
672.907718	-116.692061
673.058791	-115.925000
673.209933	-115.294755
673.361142	-114.787553
673.512419	-114.392717
673.663764	-114.105912
673.815177	-113.930781
673.966658	-113.879307
674.118207	-113.971427
674.269825	-114.234496
674.421510	-114.703134
674.573264	-115.419446
674.725086	-116.432176
674.876977	-117.787521
675.028936	-119.480913
675.180963	-121.262236
675.333059	-122.218400
675.485224	-121.350115
675.637457	-119.332893
675.789758	-117.233351
675.942129	-115.415536
676.094568	-113.915144
676.247075	-112.697767
676.399652	-111.728293
676.552298	-110.983967
676.705012	-110.454153
676.857795	-110.137442
677.010648	-110.038702
677.163569	-110.166624
677.316560	-110.531665
677.469619	-111.143833
677.622748	-112.008993
677.775946	-113.120737
677.929214	-114.441455
678.082551	-115.862641
678.235957	-117.148791
678.389432	-117.953550
678.542977	-118.058621
678.696592	-117.606483
678.850276	-116.919408
679.004030	-116.231574
679.157853	-115.645311
679.311746	-115.183251
679.465709	-114.828785
679.619742	-114.544877
679.773844	-114.283844
679.928017	-113.997761
680.082259	-113.652169
680.236571	-113.237864
680.390954	-112.772743
680.545406	-112.292345
680.699929	-111.836448
680.854522	-111.439705
681.009185	-111.128650
681.163918	-110.923176
681.318722	-110.839914
681.473596	-110.895979
681.628540	-111.112502
681.783555	-111.518229
681.938641	-112.154202
682.093797	-113.081717
682.249023	-114.398352
682.404321	-116.274604
682.559689	-119.049356
682.715128	-123.502334
682.870637	-129.867616
683.026218	-124.943442
683.181869	-119.381346
683.337591	-115.858784
683.493385	-113.394737
683.649249	-111.566697
683.805185	-110.173020
683.961191	-109.105079
684.117269	-108.300606
684.273418	-107.724215
684.429639	-107.358260
684.585930	-107.198055
684.742294	-107.249166
684.898728	-107.525812
685.055234	-108.049903
685.211812	-108.849924
685.368461	-109.957161
685.525182	-111.390128
685.681975	-113.096263
685.838839	-114.776333
685.995775	-115.661327
686.152783	-115.123003
686.309863	-113.695903
686.467014	-112.174413
686.624238	-110.886262
686.781534	-109.890731
686.938902	-109.169360
687.096342	-108.692120
687.253854	-108.435629
687.411438	-108.387381
687.569095	-108.545987
687.726824	-108.920068
687.884626	-109.525989
688.042499	-110.382500
688.200446	-111.495089
688.358465	-112.808902
688.516556	-114.089443
688.674720	-114.784994
688.832957	-114.363078
688.991266	-113.055804
689.149649	-111.502036
689.308104	-110.078206
689.466632	-108.901621
689.625233	-107.984207
689.783906	-107.308239
689.942653	-106.853063
690.101473	-106.604090
690.260367	-106.556020
690.419333	-106.714056
690.578372	-107.094032
690.737485	-107.721246
690.896672	-108.626134
691.055931	-109.829465
691.215264	-111.292573
691.374671	-112.773632
691.534151	-113.623312
691.693704	-113.191086
691.853332	-111.814140
692.013033	-110.260516
692.172807	-108.917220
692.332656	-107.878949
692.492578	-107.139227
692.652575	-106.667285
692.812645	-106.431188
692.972789	-106.404438
693.133007	-106.568114
693.293300	-106.911581
693.453666	-107.431731
693.614107	-108.129340
693.774622	-108.999459
693.935211	-110.009642
694.095875	-111.056747
694.256613	-111.910946
694.417426	-112.244731
694.578313	-111.883180
694.739274	-111.006521
694.900311	-109.944698
695.061421	-108.927909
695.222607	-108.057805
695.383868	-107.361835
695.545203	-106.834045
695.706613	-106.454652
695.868098	-106.198451
696.029658	-106.039042
696.191293	-105.952144
696.353003	-105.918893
696.514789	-105.928328
696.676649	-105.977409
696.838585	-106.067311
697.000596	-106.196118
697.162682	-106.349652
697.324844	-106.493973
697.487081	-106.575602
697.649394	-106.536423
697.811782	-106.342121
697.974246	-106.005665
698.136786	-105.584162
698.299401	-105.152409
698.462092	-104.776412
698.624859	-104.501042
698.787702	-104.349794
698.950621	-104.329799
699.113616	-104.437859
699.276686	-104.666110
699.439833	-105.007068
699.603056	-105.457839
699.766355	-106.022952
699.929731	-106.715362
700.093183	-107.555578
700.256711	-108.569237
700.420315	-109.782147
700.583996	-111.207227
700.747754	-112.804890
700.911588	-114.376575
701.075499	-115.411163
701.239486	-115.317356
701.403550	-114.209414
701.567691	-112.728621
701.731909	-111.298473
701.896203	-110.057564
702.060575	-109.020142
702.225024	-108.163964
702.389549	-107.463161
702.554152	-106.900023
702.718832	-106.468540
702.883589	-106.173466
703.048424	-106.026547
703.213335	-106.041295
703.378324	-106.227344
703.543391	-106.584645
703.708535	-107.097156
703.873757	-107.726318
704.039056	-108.407663
704.204433	-109.058848
704.369887	-109.606877
704.535420	-110.024753
704.701030	-110.346514
704.866718	-110.644535
705.032484	-110.992129
705.198328	-111.439856
705.364250	-112.010208
705.530250	-112.701387
705.696328	-113.491715
705.862485	-114.339536
706.028720	-115.175053
706.195033	-115.883453
706.361424	-116.293089
706.527894	-116.213417
706.694442	-115.552606
706.861069	-114.405655
707.027775	-112.982749
707.194559	-111.479007
707.361422	-110.020544
707.528363	-108.673872
707.695384	-107.468843
707.862483	-106.415987
708.029661	-105.517152
708.196918	-104.771700
708.364254	-104.179712
708.531670	-103.743057
708.699164	-103.464972
708.866738	-103.348695
709.034391	-103.395561
709.202123	-103.603102
709.369935	-103.963581
709.537826	-104.463444
709.705796	-105.084220
709.873847	-105.805283
710.041976	-106.608068
710.210186	-107.479838
710.378475	-108.413867
710.546844	-109.403580
710.715292	-110.431070
710.883821	-111.454158
711.052429	-112.400174
711.221118	-113.177302
711.389887	-113.707195
711.558735	-113.960159
711.727664	-113.962567
711.896673	-113.772082
712.065763	-113.443218
712.234932	-113.001115
712.404183	-112.432148
712.573513	-111.701681
712.742924	-110.798436
712.912416	-109.771819
713.081988	-108.723689
713.251641	-107.766914
713.421375	-106.992396
713.591190	-106.460156
713.761085	-106.204527
713.931061	-106.242203
714.101119	-106.578779
714.271257	-107.213978
714.441476	-108.147495
714.611777	-109.388259
714.782159	-110.970230
714.952622	-112.978034
715.123166	-115.587383
715.293792	-119.114509
715.464499	-123.691981
715.635288	-125.206362
715.806158	-121.405669
715.977110	-118.068472
716.148143	-115.567449
716.319259	-113.441510
716.490456	-111.436617
716.661735	-109.511826
716.833096	-107.736232
717.004538	-106.187276
717.176063	-104.908601
717.347670	-103.910350
717.519359	-103.181301
717.691130	-102.700065
717.862984	-102.443802
718.034920	-102.395457
718.206938	-102.549837
718.379039	-102.917904
718.551222	-103.528772
718.723488	-104.430143
718.895836	-105.689671
719.068267	-107.400877
719.240781	-109.698108
719.413377	-112.781358
719.586057	-116.875307
719.758819	-121.162893
719.931664	-121.118615
720.104593	-118.588040
720.277604	-116.832718
720.450699	-115.882069
720.623876	-115.410653
720.797137	-115.144480
720.970482	-114.881236
721.143910	-114.512111
721.317421	-114.036732
721.491016	-113.542912
721.664694	-113.158976
721.838456	-113.004351
722.012302	-113.142243
722.186231	-113.501113
722.360244	-113.735128
722.534342	-113.254224
722.708523	-111.877551
