# 2022-03-22_02.14.06
# shape = sech2
# FWHM_ps = 0.1
# carrier_nm = 1542
# frep_MHz = 12126
# pow_mW = 8000
# GDD = 0.0
# propa_len = 0.16
# untap_len = 0.01
# taper_len = 0.1
# waist_len = 0.02
# uptap_len = 0.02
# untap_scale = 1.0
# waist_scale = 0.22631578947368425
# workingDir = NL_20110305_12 (Spirou)
# axis = slow
# window_ps = 10.0
# steps = 200
# points = 21700
# 
# wavelength [nm]	 power spectral density [dB]
600.043425	-107.119555
600.163550	-104.751099
600.283723	-102.961178
600.403943	-101.613304
600.524212	-100.618148
600.644529	-99.948948
600.764895	-99.594764
600.885308	-99.522762
601.005770	-99.694264
601.126280	-100.091610
601.246839	-100.677923
601.367446	-101.411680
601.488101	-102.223088
601.608804	-103.025026
601.729557	-103.789428
601.850357	-104.457660
601.971206	-104.899829
602.092104	-104.985267
602.213050	-104.718698
602.334045	-104.303613
602.455089	-103.964314
602.576181	-103.818378
602.697322	-103.943115
602.818511	-104.386133
602.939749	-105.064299
603.061036	-105.844556
603.182372	-106.638708
603.303757	-107.353393
603.425191	-107.936205
603.546673	-108.546955
603.668204	-109.234130
603.789785	-109.745216
603.911414	-109.826999
604.033092	-109.345989
604.154820	-108.410017
604.276596	-107.362262
604.398422	-106.387657
604.520297	-105.491434
604.642220	-104.726021
604.764193	-104.062190
604.886216	-103.456246
605.008287	-102.880718
605.130408	-102.362145
605.252578	-101.971622
605.374798	-101.818707
605.497066	-101.902110
605.619385	-102.160839
605.741752	-102.476461
605.864169	-102.591011
605.986636	-102.258419
606.109152	-101.547751
606.231718	-100.745808
606.354333	-100.031007
606.476998	-99.492358
606.599712	-99.102207
606.722476	-98.811576
606.845290	-98.585231
606.968154	-98.425001
607.091067	-98.269764
607.214030	-98.088796
607.337043	-97.915465
607.460106	-97.693521
607.583219	-97.401502
607.706381	-97.013334
607.829594	-96.546241
607.952856	-96.031352
608.076169	-95.503133
608.199531	-94.973707
608.322944	-94.485998
608.446407	-94.129787
608.569920	-93.929062
608.693483	-93.878603
608.817096	-93.990977
608.940759	-94.220228
609.064473	-94.474865
609.188237	-94.683192
609.312051	-94.793842
609.435916	-94.802698
609.559831	-94.730177
609.683796	-94.629513
609.807812	-94.557345
609.931878	-94.512304
610.055995	-94.466839
610.180162	-94.428145
610.304380	-94.437434
610.428648	-94.516426
610.552967	-94.653502
610.677337	-94.850054
610.801757	-95.117703
610.926228	-95.437445
611.050750	-95.802591
611.175323	-96.230509
611.299946	-96.718670
611.424620	-97.230648
611.549345	-97.702048
611.674121	-98.209332
611.798948	-98.949612
611.923826	-100.169727
612.048755	-102.049639
612.173734	-104.585395
612.298765	-106.999397
612.423847	-106.769803
612.548980	-104.251963
612.674165	-101.867533
612.799400	-100.032171
612.924687	-98.599283
613.050025	-97.460818
613.175414	-96.579925
613.300854	-95.918212
613.426346	-95.460690
613.551889	-95.135853
613.677484	-94.851559
613.803130	-94.568948
613.928827	-94.319055
614.054576	-94.112572
614.180377	-93.906824
614.306229	-93.641426
614.432132	-93.316215
614.558087	-92.994207
614.684094	-92.769515
614.810153	-92.710051
614.936263	-92.815073
615.062425	-92.999217
615.188639	-93.174688
615.314904	-93.293949
615.441222	-93.360155
615.567591	-93.438579
615.694012	-93.590669
615.820486	-93.815622
615.947011	-94.084320
616.073588	-94.386758
616.200217	-94.757852
616.326898	-95.233794
616.453632	-95.859434
616.580417	-96.638229
616.707255	-97.487901
616.834144	-98.370894
616.961086	-99.377377
617.088081	-100.674505
617.215127	-102.201416
617.342226	-103.459018
617.469378	-103.770941
617.596581	-103.266345
617.723837	-102.608201
617.851146	-102.076583
617.978507	-101.524562
618.105920	-100.900534
618.233386	-100.309029
618.360905	-99.872425
618.488476	-99.640821
618.616100	-99.586804
618.743777	-99.581709
618.871506	-99.427629
618.999288	-98.956067
619.127123	-98.187891
619.255011	-97.178562
619.382951	-95.981037
619.510945	-94.779344
619.638991	-93.731408
619.767090	-92.922492
619.895243	-92.356043
620.023448	-91.926199
620.151706	-91.483238
620.280017	-90.988514
620.408382	-90.437941
620.536799	-89.886311
620.665270	-89.360836
620.793794	-88.861829
620.922371	-88.384759
621.051002	-87.932918
621.179686	-87.538152
621.308423	-87.246094
621.437213	-87.066108
621.566057	-86.993252
621.694954	-87.013236
621.823905	-87.097427
621.952909	-87.233417
622.081967	-87.429923
622.211079	-87.662972
622.340244	-87.903825
622.469462	-88.134007
622.598735	-88.351014
622.728061	-88.598613
622.857441	-88.942286
622.986874	-89.424316
623.116361	-90.000598
623.245903	-90.634247
623.375498	-91.314073
623.505147	-92.031089
623.634850	-92.754903
623.764606	-93.473971
623.894417	-94.076337
624.024282	-94.363303
624.154201	-94.229679
624.284174	-93.783786
624.414202	-93.165231
624.544283	-92.454090
624.674419	-91.731126
624.804609	-91.089438
624.934853	-90.575281
625.065151	-90.226681
625.195504	-90.022168
625.325911	-89.916454
625.456373	-89.845052
625.586889	-89.783271
625.717460	-89.745061
625.848085	-89.765412
625.978764	-89.859081
626.109498	-90.013055
626.240287	-90.231524
626.371131	-90.504315
626.502029	-90.838413
626.632982	-91.214668
626.763989	-91.603583
626.895052	-91.938783
627.026169	-92.184963
627.157341	-92.346685
627.288568	-92.425574
627.419850	-92.405408
627.551187	-92.244556
627.682579	-91.936662
627.814026	-91.496299
627.945528	-91.003228
628.077085	-90.486763
628.208697	-89.931678
628.340364	-89.315307
628.472087	-88.630811
628.603865	-87.944386
628.735698	-87.312346
628.867586	-86.777212
628.999530	-86.339075
629.131529	-86.000585
629.263584	-85.737344
629.395694	-85.546464
629.527859	-85.426723
629.660080	-85.368591
629.792357	-85.355191
629.924689	-85.375267
630.057077	-85.443259
630.189520	-85.562652
630.322019	-85.740904
630.454574	-85.969242
630.587184	-86.242061
630.719851	-86.537023
630.852573	-86.858480
630.985351	-87.229376
631.118185	-87.667573
631.251075	-88.175332
631.384021	-88.782652
631.517023	-89.525432
631.650081	-90.402690
631.783195	-91.430715
631.916365	-92.616754
632.049592	-93.907578
632.182874	-95.194327
632.316213	-96.314261
632.449608	-96.932241
632.583059	-96.715906
632.716567	-95.815485
632.850131	-94.652368
632.983751	-93.587192
633.117428	-92.780291
633.251161	-92.219715
633.384951	-91.838566
633.518797	-91.544772
633.652700	-91.305038
633.786660	-91.109860
633.920676	-91.007730
634.054749	-90.991460
634.188879	-91.048805
634.323065	-91.194681
634.457308	-91.477974
634.591608	-91.901669
634.725965	-92.467925
634.860379	-93.194927
634.994850	-94.101112
635.129377	-95.258925
635.263962	-96.763571
635.398604	-98.698109
635.533303	-100.958500
635.668058	-102.842027
635.802872	-103.095793
635.937742	-101.534198
636.072669	-99.284818
636.207654	-97.176788
636.342696	-95.328751
636.477796	-93.792905
636.612953	-92.575582
636.748167	-91.602656
636.883439	-90.761758
637.018768	-90.003698
637.154155	-89.352504
637.289599	-88.852393
637.425101	-88.543195
637.560660	-88.379069
637.696277	-88.293645
637.831952	-88.237320
637.967685	-88.247814
638.103475	-88.372944
638.239324	-88.668157
638.375230	-89.142030
638.511194	-89.785923
638.647215	-90.550516
638.783295	-91.437662
638.919433	-92.459354
639.055629	-93.591393
639.191883	-94.753382
639.328195	-95.806077
639.464565	-96.539638
639.600994	-96.697544
639.737481	-96.264472
639.874025	-95.400336
640.010629	-94.356005
640.147290	-93.271368
640.284010	-92.235365
640.420789	-91.259578
640.557625	-90.417055
640.694521	-89.751950
640.831474	-89.301994
640.968487	-89.041476
641.105558	-88.939815
641.242687	-88.938628
641.379876	-89.018257
641.517123	-89.198427
641.654429	-89.528184
641.791793	-90.041281
641.929216	-90.757625
642.066699	-91.621043
642.204240	-92.458845
642.341840	-93.085514
642.479499	-93.362117
642.617217	-93.240554
642.754994	-92.756286
642.892830	-92.025224
643.030726	-91.196545
643.168680	-90.400489
643.306694	-89.689202
643.444767	-89.030359
643.582899	-88.404318
643.721091	-87.816228
643.859342	-87.281539
643.997652	-86.792643
644.136022	-86.376137
644.274451	-86.062641
644.412940	-85.846403
644.551488	-85.701779
644.690096	-85.617676
644.828763	-85.575554
644.967490	-85.580373
645.106277	-85.637587
645.245124	-85.747129
645.384030	-85.922042
645.522997	-86.212189
645.662023	-86.634771
645.801109	-87.190454
645.940255	-87.842594
646.079460	-88.569752
646.218726	-89.390834
646.358052	-90.397681
646.497438	-91.684010
646.636884	-93.308646
646.776391	-95.329082
646.915957	-97.613728
647.055584	-100.137455
647.195271	-101.715020
647.335019	-99.737271
647.474826	-96.208108
647.614695	-93.140784
647.754623	-90.792913
647.894612	-89.048836
648.034662	-87.735638
648.174772	-86.682875
648.314943	-85.822201
648.455174	-85.102454
648.595466	-84.518503
648.735819	-84.082218
648.876233	-83.780840
649.016707	-83.598483
649.157242	-83.530751
649.297838	-83.575200
649.438495	-83.718818
649.579213	-83.955181
649.719992	-84.225523
649.860832	-84.480642
650.001733	-84.714726
650.142695	-84.957603
650.283718	-85.227478
650.424803	-85.527825
650.565949	-85.810424
650.707156	-86.076158
650.848424	-86.367797
650.989754	-86.684064
651.131145	-86.996028
651.272597	-87.182967
651.414111	-87.101578
651.555687	-86.715713
651.697324	-86.166472
651.839022	-85.608103
651.980782	-85.157897
652.122604	-84.796417
652.264488	-84.487121
652.406433	-84.179322
652.548441	-83.880998
652.690510	-83.672316
652.832640	-83.635615
652.974833	-83.804422
653.117088	-84.198223
653.259405	-84.822648
653.401784	-85.650967
653.544224	-86.671325
653.686727	-87.844467
653.829293	-89.137826
653.971920	-90.588354
654.114609	-92.326109
654.257361	-94.525469
654.400175	-97.515475
654.543052	-101.768349
654.685991	-106.732552
654.828992	-104.884438
654.972056	-100.373399
655.115183	-97.141099
655.258372	-94.628969
655.401623	-92.570967
655.544937	-90.887397
655.688314	-89.553657
655.831754	-88.522947
655.975256	-87.680160
656.118822	-86.951665
656.262450	-86.338137
656.406141	-85.872143
656.549894	-85.621026
656.693711	-85.608529
656.837591	-85.819577
656.981534	-86.198096
657.125540	-86.646148
657.269610	-87.037599
657.413742	-87.322139
657.557938	-87.540810
657.702196	-87.721708
657.846519	-87.856939
657.990904	-87.882070
658.135353	-87.774490
658.279866	-87.568315
658.424441	-87.312432
658.569081	-87.095350
658.713784	-86.982380
658.858550	-87.003128
659.003381	-87.137981
659.148274	-87.355654
659.293232	-87.683618
659.438253	-88.185326
659.583339	-88.806691
659.728488	-89.427424
659.873701	-89.890869
660.018978	-90.072484
660.164318	-89.954753
660.309723	-89.534304
660.455192	-88.909945
660.600725	-88.273153
660.746323	-87.722746
660.891984	-87.280515
661.037710	-86.971680
661.183500	-86.791047
661.329354	-86.752466
661.475272	-86.853355
661.621255	-87.098354
661.767303	-87.525886
661.913415	-88.150596
662.059591	-88.983203
662.205833	-90.086116
662.352138	-91.506765
662.498509	-93.290069
662.644944	-95.477143
662.791443	-98.121946
662.938008	-101.398342
663.084638	-105.008678
663.231332	-106.430012
663.378091	-104.674162
663.524915	-102.355675
663.671804	-100.086652
663.818759	-97.978071
663.965778	-96.127840
664.112863	-94.492367
664.260012	-93.018531
664.407227	-91.705209
664.554507	-90.466579
664.701853	-89.241006
664.849264	-88.046595
664.996740	-87.008157
665.144282	-86.201659
665.291889	-85.630184
665.439561	-85.292012
665.587300	-85.141923
665.735103	-85.133711
665.882973	-85.286074
666.030908	-85.677328
666.178909	-86.362997
666.326976	-87.314611
666.475109	-88.295442
666.623307	-89.011742
666.771571	-89.169093
666.919902	-88.687072
667.068298	-87.855492
667.216761	-86.904825
667.365289	-85.899058
667.513884	-84.887350
667.662545	-83.968609
667.811272	-83.244160
667.960065	-82.777257
668.108925	-82.591868
668.257851	-82.679259
668.406843	-82.980946
668.555902	-83.428373
668.705027	-84.024003
668.854219	-84.851748
669.003478	-85.943184
669.152803	-87.351236
669.302195	-89.153132
669.451653	-91.369237
669.601179	-93.829745
669.750771	-96.251856
669.900430	-98.108449
670.050156	-98.836072
670.199949	-98.700865
670.349808	-98.585151
670.499735	-98.995855
670.649729	-100.517436
670.799790	-103.281765
670.949918	-103.694959
671.100114	-100.056345
671.250377	-96.623148
671.400707	-94.106824
671.551104	-92.259220
671.701569	-90.841654
671.852101	-89.709894
672.002700	-88.873829
672.153368	-88.420233
672.304102	-88.401229
672.454905	-88.841443
672.605775	-89.834461
672.756713	-91.324486
672.907718	-93.123091
673.058791	-95.155683
673.209933	-97.507803
673.361142	-99.509306
673.512419	-99.766321
673.663764	-97.761801
673.815177	-95.423996
673.966658	-93.828873
674.118207	-92.887355
674.269825	-92.456257
674.421510	-92.461752
674.573264	-92.795645
674.725086	-93.147829
674.876977	-93.221908
675.028936	-92.777979
675.180963	-91.795627
675.333059	-90.487546
675.485224	-89.194725
675.637457	-88.072928
675.789758	-87.103298
675.942129	-86.238811
676.094568	-85.521105
676.247075	-84.972125
676.399652	-84.643633
676.552298	-84.599865
676.705012	-84.862560
676.857795	-85.391544
677.010648	-86.145237
677.163569	-87.055104
677.316560	-88.081901
677.469619	-89.333156
677.622748	-90.982452
677.775946	-93.182093
677.929214	-95.930636
678.082551	-98.572476
678.235957	-99.316244
678.389432	-98.205910
678.542977	-96.663200
678.696592	-95.128588
678.850276	-93.680460
679.004030	-92.211576
679.157853	-90.831772
679.311746	-89.687730
679.465709	-88.818553
679.619742	-88.178235
679.773844	-87.705900
679.928017	-87.311595
680.082259	-86.969237
680.236571	-86.782955
680.390954	-86.820664
680.545406	-87.085562
680.699929	-87.509435
680.854522	-87.939059
681.009185	-88.296368
681.163918	-88.587475
681.318722	-88.836541
681.473596	-88.888832
681.628540	-88.474926
681.783555	-87.513407
681.938641	-86.418169
682.093797	-85.600800
682.249023	-85.237942
682.404321	-85.303881
682.559689	-85.602779
682.715128	-85.941722
682.870637	-86.251152
683.026218	-86.631647
683.181869	-87.095284
683.337591	-87.421874
683.493385	-86.997492
683.649249	-85.713804
683.805185	-84.102847
683.961191	-82.588149
684.117269	-81.305481
684.273418	-80.242914
684.429639	-79.423052
684.585930	-78.869605
684.742294	-78.589241
684.898728	-78.534105
685.055234	-78.662649
685.211812	-78.926755
685.368461	-79.345820
685.525182	-79.996493
685.681975	-81.011558
685.838839	-82.517514
685.995775	-84.596846
686.152783	-87.075261
686.309863	-89.164892
686.467014	-89.666139
686.624238	-88.512194
686.781534	-86.832669
686.938902	-85.162763
687.096342	-83.754254
687.253854	-82.688656
687.411438	-81.961040
687.569095	-81.554320
687.726824	-81.425959
687.884626	-81.510032
688.042499	-81.806078
688.200446	-82.367447
688.358465	-83.230346
688.516556	-84.496405
688.674720	-86.167659
688.832957	-88.333028
688.991266	-91.281858
689.149649	-95.925329
689.308104	-104.964725
689.466632	-99.551039
689.625233	-92.973611
689.783906	-89.314188
689.942653	-86.926648
690.101473	-85.213663
690.260367	-83.887618
690.419333	-82.816282
690.578372	-81.975437
690.737485	-81.398012
690.896672	-81.070281
691.055931	-80.964037
691.215264	-81.029600
691.374671	-81.235121
691.534151	-81.583745
691.693704	-82.122192
691.853332	-82.933387
692.013033	-84.119201
692.172807	-85.781914
692.332656	-88.055783
692.492578	-91.177580
692.652575	-95.200962
692.812645	-97.562983
692.972789	-94.887815
693.133007	-91.969092
693.293300	-90.098566
693.453666	-89.044159
693.614107	-88.541527
693.774622	-88.388395
693.935211	-88.539990
694.095875	-89.179866
694.256613	-90.584513
694.417426	-92.965644
694.578313	-95.755222
694.739274	-96.182894
694.900311	-94.129306
695.061421	-92.146805
695.222607	-90.633881
695.383868	-89.280213
695.545203	-87.936821
695.706613	-86.655271
695.868098	-85.623294
696.029658	-84.895130
696.191293	-84.445709
696.353003	-84.194970
696.514789	-84.036847
696.676649	-83.861723
696.838585	-83.582558
697.000596	-83.205155
697.162682	-82.829610
697.324844	-82.523263
697.487081	-82.343384
697.649394	-82.330414
697.811782	-82.484761
697.974246	-82.832990
698.136786	-83.403555
698.299401	-84.212292
698.462092	-85.060850
698.624859	-85.528650
698.787702	-85.318271
698.950621	-84.644981
699.113616	-83.749623
699.276686	-82.766260
699.439833	-81.753019
699.603056	-80.839029
699.766355	-80.083500
699.929731	-79.526549
700.093183	-79.144827
700.256711	-78.883522
700.420315	-78.699124
700.583996	-78.591535
700.747754	-78.600763
700.911588	-78.738326
701.075499	-79.007305
701.239486	-79.357951
701.403550	-79.795576
701.567691	-80.296007
701.731909	-80.853128
701.896203	-81.360503
702.060575	-81.698807
702.225024	-81.724665
702.389549	-81.441701
702.554152	-80.885846
702.718832	-80.093323
702.883589	-79.020174
703.048424	-77.706494
703.213335	-76.338911
703.378324	-75.102973
703.543391	-74.099406
703.708535	-73.290988
703.873757	-72.633950
704.039056	-72.099099
704.204433	-71.725692
704.369887	-71.537325
704.535420	-71.556881
704.701030	-71.757892
704.866718	-72.101691
705.032484	-72.521322
705.198328	-72.936815
705.364250	-73.230580
705.530250	-73.272411
705.696328	-73.019025
705.862485	-72.541580
706.028720	-71.952412
706.195033	-71.307547
706.361424	-70.655259
706.527894	-70.054929
706.694442	-69.585083
706.861069	-69.288239
707.027775	-69.171086
707.194559	-69.205128
707.361422	-69.366616
707.528363	-69.650559
707.695384	-70.050838
707.862483	-70.525283
708.029661	-70.982094
708.196918	-71.341365
708.364254	-71.570384
708.531670	-71.683638
708.699164	-71.685412
708.866738	-71.590162
709.034391	-71.447541
709.202123	-71.333672
709.369935	-71.307108
709.537826	-71.387248
709.705796	-71.581142
709.873847	-71.882320
710.041976	-72.302863
710.210186	-72.842784
710.378475	-73.486235
710.546844	-74.176572
710.715292	-74.854634
710.883821	-75.470494
711.052429	-75.973876
711.221118	-76.290155
711.389887	-76.392883
711.558735	-76.384117
711.727664	-76.405760
711.896673	-76.535680
712.065763	-76.753704
712.234932	-76.972171
712.404183	-77.129469
712.573513	-77.231701
712.742924	-77.350641
712.912416	-77.485176
713.081988	-77.574780
713.251641	-77.533239
713.421375	-77.353504
713.591190	-77.051631
713.761085	-76.679981
713.931061	-76.303480
714.101119	-75.994079
714.271257	-75.787914
714.441476	-75.720029
714.611777	-75.810872
714.782159	-76.071512
714.952622	-76.508927
715.123166	-77.179757
715.293792	-78.128815
715.464499	-79.298798
715.635288	-80.374296
715.806158	-80.851085
715.977110	-80.466740
716.148143	-79.567838
716.319259	-78.598231
716.490456	-77.796114
716.661735	-77.223903
716.833096	-76.907073
717.004538	-76.884627
717.176063	-77.220523
717.347670	-78.019644
717.519359	-79.368364
717.691130	-81.297687
717.862984	-83.452392
718.034920	-84.657686
718.206938	-83.743639
718.379039	-81.743145
718.551222	-79.795425
718.723488	-78.230658
718.895836	-77.118518
719.068267	-76.446527
719.240781	-76.223564
719.413377	-76.412540
719.586057	-77.038943
719.758819	-78.162643
719.931664	-79.947638
720.104593	-82.590380
720.277604	-86.464656
720.450699	-91.285717
720.623876	-89.964221
720.797137	-85.426140
720.970482	-82.303993
721.143910	-80.315436
721.317421	-79.057509
721.491016	-78.331145
721.664694	-77.966454
721.838456	-77.871259
722.012302	-77.986194
722.186231	-78.328963
722.360244	-78.895919
722.534342	-79.656491
722.708523	-80.544449
722.882788	-81.587759
723.057137	-82.905013
723.231570	-84.671172
723.406088	-86.605893
723.580689	-86.852624
723.755375	-84.583200
723.930146	-81.957264
724.105000	-79.897526
724.279940	-78.376502
724.454963	-77.318161
724.630072	-76.668257
724.805265	-76.393506
724.980543	-76.478388
725.155905	-76.948455
725.331353	-77.918612
725.506885	-79.592871
725.682503	-82.212819
725.858205	-85.603379
726.033993	-86.944804
726.209865	-84.545633
726.385823	-81.868861
726.561866	-79.819414
726.737995	-78.347818
726.914209	-77.501022
727.090508	-77.324687
727.266893	-77.833547
727.443364	-79.022233
727.619920	-80.892393
727.796562	-83.193955
727.973290	-84.609560
728.150103	-83.488217
728.327003	-81.196008
728.503988	-79.239016
728.681060	-77.906405
728.858218	-77.154198
729.035461	-76.960414
