# 2022-03-21_18.38.40
# shape = sech2
# FWHM_ps = 0.1
# carrier_nm = 1542
# frep_MHz = 12126
# pow_mW = 8000
# GDD = 0.0
# propa_len = 0.16
# untap_len = 0.01
# taper_len = 0.1
# waist_len = 0.02
# uptap_len = 0.02
# untap_scale = 1.0
# waist_scale = 0.35
# workingDir = NL_20110305_12 (Spirou)
# axis = slow
# window_ps = 10.0
# steps = 200
# points = 21700
# 
# wavelength [nm]	 power spectral density [dB]
600.043425	-140.730877
600.163550	-139.621449
600.283723	-138.795755
600.403943	-138.225168
600.524212	-137.883569
600.644529	-137.743040
600.764895	-137.771086
600.885308	-137.928374
601.005770	-138.168378
601.126280	-138.441041
601.246839	-138.702151
601.367446	-138.925978
601.488101	-139.114478
601.608804	-139.296519
601.729557	-139.517646
601.850357	-139.827797
601.971206	-140.272721
602.092104	-140.890244
602.213050	-141.708560
602.334045	-142.742548
602.455089	-143.982998
602.576181	-145.367077
602.697322	-146.715516
602.818511	-147.664219
602.939749	-147.783551
603.061036	-146.992508
603.182372	-145.639982
603.303757	-144.106393
603.425191	-142.611794
603.546673	-141.260585
603.668204	-140.102664
603.789785	-139.162784
603.911414	-138.451358
604.033092	-137.968485
604.154820	-137.705971
604.276596	-137.648017
604.398422	-137.771989
604.520297	-138.050684
604.642220	-138.457608
604.764193	-138.975424
604.886216	-139.604729
605.008287	-140.367594
605.130408	-141.299312
605.252578	-142.419734
605.374798	-143.665972
605.497066	-144.763244
605.619385	-145.174672
605.741752	-144.577244
605.864169	-143.338450
605.986636	-141.993864
606.109152	-140.807535
606.231718	-139.835583
606.354333	-139.049420
606.476998	-138.399492
606.599712	-137.845178
606.722476	-137.369644
606.845290	-136.981239
606.968154	-136.704913
607.091067	-136.569777
607.214030	-136.597269
607.337043	-136.791928
607.460106	-137.132431
607.583219	-137.560822
607.706381	-137.974930
607.829594	-138.243223
607.952856	-138.260185
608.076169	-138.013865
608.199531	-137.592292
608.322944	-137.121219
608.446407	-136.704517
608.569920	-136.405664
608.693483	-136.254223
608.817096	-136.255654
608.940759	-136.398451
609.064473	-136.658614
609.188237	-137.004118
609.312051	-137.403403
609.435916	-137.838819
609.559831	-138.321175
609.683796	-138.897026
609.807812	-139.645610
609.931878	-140.669708
610.055995	-142.085112
610.180162	-143.991657
610.304380	-146.304283
610.428648	-148.074476
610.552967	-147.531578
610.677337	-145.459099
610.801757	-143.506802
610.926228	-142.097591
611.050750	-141.203891
611.175323	-140.725867
611.299946	-140.558382
611.424620	-140.599785
611.549345	-140.763419
611.674121	-141.002304
611.798948	-141.332926
611.923826	-141.838886
612.048755	-142.656715
612.173734	-143.967499
612.298765	-146.009419
612.423847	-149.028285
612.548980	-152.110626
612.674165	-150.674297
612.799400	-146.982761
612.924687	-144.167008
613.050025	-142.266272
613.175414	-141.038250
613.300854	-140.304599
613.426346	-139.931972
613.551889	-139.806798
613.677484	-139.827888
613.803130	-139.915634
613.928827	-140.029852
614.054576	-140.179328
614.180377	-140.411756
614.306229	-140.792741
614.432132	-141.389429
614.558087	-142.267211
614.684094	-143.499527
614.810153	-145.193402
614.936263	-147.546750
615.062425	-151.013283
615.188639	-157.052135
615.314904	-171.387742
615.441222	-156.497063
615.567591	-150.806579
615.694012	-147.451611
615.820486	-145.106131
615.947011	-143.344619
616.073588	-141.987753
616.200217	-140.951930
616.326898	-140.197834
616.453632	-139.709102
616.580417	-139.482858
616.707255	-139.526218
616.834144	-139.855282
616.961086	-140.492628
617.088081	-141.450841
617.215127	-142.662856
617.342226	-143.772207
617.469378	-143.923239
617.596581	-142.606348
617.723837	-140.551562
617.851146	-138.538826
617.978507	-136.842078
618.105920	-135.493669
618.233386	-134.457231
618.360905	-133.681964
618.488476	-133.119086
618.616100	-132.730467
618.743777	-132.496156
618.871506	-132.419634
618.999288	-132.528358
619.127123	-132.869312
619.255011	-133.502036
619.382951	-134.488163
619.510945	-135.864724
619.638991	-137.548865
619.767090	-139.061370
619.895243	-139.385719
620.023448	-138.244779
620.151706	-136.591403
620.280017	-135.089201
620.408382	-133.882995
620.536799	-132.932120
620.665270	-132.166236
620.793794	-131.537683
620.922371	-131.036872
621.051002	-130.686738
621.179686	-130.526415
621.308423	-130.593948
621.437213	-130.911741
621.566057	-131.470869
621.694954	-132.207046
621.823905	-132.969495
621.952909	-133.525396
622.081967	-133.681176
622.211079	-133.454475
622.340244	-133.048144
622.469462	-132.667114
622.598735	-132.422044
622.728061	-132.339367
622.857441	-132.397887
622.986874	-132.560712
623.116361	-132.799250
623.245903	-133.106655
623.375498	-133.495691
623.505147	-133.981014
623.634850	-134.553310
623.764606	-135.153060
623.894417	-135.657332
624.024282	-135.910338
624.154201	-135.814465
624.284174	-135.406066
624.414202	-134.817601
624.544283	-134.181067
624.674419	-133.578864
624.804609	-133.047065
624.934853	-132.594792
625.065151	-132.221468
625.195504	-131.927110
625.325911	-131.716078
625.456373	-131.596580
625.586889	-131.577782
625.717460	-131.665705
625.848085	-131.859605
625.978764	-132.150475
626.109498	-132.522435
626.240287	-132.957201
626.371131	-133.439757
626.502029	-133.961209
626.632982	-134.515174
626.763989	-135.086199
626.895052	-135.632342
627.026169	-136.071265
627.157341	-136.287294
627.288568	-136.177967
627.419850	-135.720532
627.551187	-134.991505
627.682579	-134.115303
627.814026	-133.200277
627.945528	-132.309268
628.077085	-131.459417
628.208697	-130.635790
628.340364	-129.812419
628.472087	-128.974870
628.603865	-128.135100
628.735698	-127.329880
628.867586	-126.605136
628.999530	-125.998098
629.131529	-125.525269
629.263584	-125.178109
629.395694	-124.925873
629.527859	-124.726538
629.660080	-124.546311
629.792357	-124.380595
629.924689	-124.262699
630.057077	-124.254192
630.189520	-124.426351
630.322019	-124.845620
630.454574	-125.567376
630.587184	-126.635664
630.719851	-128.084586
630.852573	-129.938786
630.985351	-132.212119
631.118185	-134.898770
631.251075	-137.892139
631.384021	-140.487357
631.517023	-140.730639
631.650081	-138.628601
631.783195	-136.278094
631.916365	-134.471258
632.049592	-133.300273
632.182874	-132.730204
632.316213	-132.711193
632.449608	-133.186195
632.583059	-134.073822
632.716567	-135.240251
632.850131	-136.475750
632.983751	-137.510584
633.117428	-138.069026
633.251161	-137.909642
633.384951	-136.940581
633.518797	-135.385539
633.652700	-133.638365
633.786660	-131.987567
633.920676	-130.558691
634.054749	-129.378107
634.188879	-128.430737
634.323065	-127.691760
634.457308	-127.141318
634.591608	-126.768745
634.725965	-126.570947
634.860379	-126.548573
634.994850	-126.701975
635.129377	-127.029424
635.263962	-127.527519
635.398604	-128.192204
635.533303	-129.019222
635.668058	-130.000160
635.802872	-131.106002
635.937742	-132.248561
636.072669	-133.221886
636.207654	-133.699044
636.342696	-133.446007
636.477796	-132.585152
636.612953	-131.455204
636.748167	-130.324977
636.883439	-129.328087
637.018768	-128.512960
637.154155	-127.886931
637.289599	-127.437997
637.425101	-127.145744
637.560660	-126.989620
637.696277	-126.956371
637.831952	-127.041478
637.967685	-127.236557
638.103475	-127.496863
638.239324	-127.696458
638.375230	-127.624167
638.511194	-127.113141
638.647215	-126.224003
638.783295	-125.205149
638.919433	-124.295249
639.055629	-123.630182
639.191883	-123.256075
639.328195	-123.158762
639.464565	-123.281003
639.600994	-123.534159
639.737481	-123.819721
639.874025	-124.065213
640.010629	-124.250490
640.147290	-124.394220
640.284010	-124.511516
640.420789	-124.586881
640.557625	-124.591192
640.694521	-124.529153
640.831474	-124.469241
640.968487	-124.525315
641.105558	-124.813502
641.242687	-125.418221
641.379876	-126.358220
641.517123	-127.499760
641.654429	-128.377613
641.791793	-128.267602
641.929216	-127.060644
642.066699	-125.415697
642.204240	-123.845748
642.341840	-122.518160
642.479499	-121.443424
642.617217	-120.586705
642.754994	-119.906336
642.892830	-119.365177
643.030726	-118.933526
643.168680	-118.588368
643.306694	-118.310485
643.444767	-118.080906
643.582899	-117.879367
643.721091	-117.687274
643.859342	-117.495406
643.997652	-117.311939
644.136022	-117.163994
644.274451	-117.090147
644.412940	-117.128044
644.551488	-117.302936
644.690096	-117.620725
644.828763	-118.066750
644.967490	-118.611644
645.106277	-119.225680
645.245124	-119.898379
645.384030	-120.653195
645.522997	-121.547095
645.662023	-122.658405
645.801109	-124.077156
645.940255	-125.913936
646.079460	-128.350603
646.218726	-131.808614
646.358052	-137.677307
646.497438	-150.266283
646.636884	-136.802496
646.776391	-130.901931
646.915957	-127.366240
647.055584	-124.930480
647.195271	-123.184612
647.335019	-121.939748
647.474826	-121.084526
647.614695	-120.539199
647.754623	-120.238387
647.894612	-120.124854
648.034662	-120.148388
648.174772	-120.267728
648.314943	-120.453286
648.455174	-120.688787
648.595466	-120.971321
648.735819	-121.309730
648.876233	-121.722305
649.016707	-122.234016
649.157242	-122.873048
649.297838	-123.666204
649.438495	-124.631730
649.579213	-125.765794
649.719992	-127.013660
649.860832	-128.211180
650.001733	-129.016746
650.142695	-129.014373
650.283718	-128.120868
650.424803	-126.698422
650.565949	-125.152944
650.707156	-123.715523
650.848424	-122.483678
650.989754	-121.489775
651.131145	-120.736801
651.272597	-120.213927
651.414111	-119.903584
651.555687	-119.786372
651.697324	-119.847334
651.839022	-120.084554
651.980782	-120.519669
652.122604	-121.209840
652.264488	-122.263710
652.406433	-123.875392
652.548441	-126.429336
652.690510	-130.942818
652.832640	-143.208055
652.974833	-135.391221
653.117088	-127.849806
653.259405	-123.966581
653.401784	-121.452603
653.544224	-119.676503
653.686727	-118.361333
653.829293	-117.359975
653.971920	-116.591343
654.114609	-116.013615
654.257361	-115.605842
654.400175	-115.351749
654.543052	-115.226350
654.685991	-115.188340
654.828992	-115.182518
654.972056	-115.155366
655.115183	-115.078700
655.258372	-114.964755
655.401623	-114.858701
655.544937	-114.814875
655.688314	-114.874682
655.831754	-115.055495
655.975256	-115.349159
656.118822	-115.726305
656.262450	-116.144937
656.406141	-116.561622
656.549894	-116.940668
656.693711	-117.255319
656.837591	-117.479972
656.981534	-117.580983
657.125540	-117.517436
657.269610	-117.256714
657.413742	-116.795511
657.557938	-116.168118
657.702196	-115.434759
657.846519	-114.661371
657.990904	-113.904829
658.135353	-113.207455
658.279866	-112.597619
658.424441	-112.092776
658.569081	-111.702649
658.713784	-111.431620
658.858550	-111.279860
659.003381	-111.243010
659.148274	-111.310530
659.293232	-111.463189
659.438253	-111.671110
659.583339	-111.894492
659.728488	-112.089743
659.873701	-112.222029
660.018978	-112.279575
660.164318	-112.280943
660.309723	-112.270191
660.455192	-112.304346
660.600725	-112.442102
660.746323	-112.738287
660.891984	-113.243366
661.037710	-114.005132
661.183500	-115.070019
661.329354	-116.479750
661.475272	-118.250987
661.621255	-120.300732
661.767303	-122.246432
661.913415	-123.272131
662.059591	-122.961037
662.205833	-121.972278
662.352138	-120.978537
662.498509	-120.210576
662.644944	-119.682200
662.791443	-119.333635
662.938008	-119.058657
663.084638	-118.697616
663.231332	-118.069812
663.378091	-117.083239
663.524915	-115.816889
663.671804	-114.452789
663.818759	-113.154683
663.965778	-112.019278
664.112863	-111.086903
664.260012	-110.364366
664.407227	-109.842131
664.554507	-109.505341
664.701853	-109.341214
664.849264	-109.344152
664.996740	-109.518647
665.144282	-109.879775
665.291889	-110.451401
665.439561	-111.262705
665.587300	-112.343518
665.735103	-113.717321
665.882973	-115.387488
666.030908	-117.307308
666.178909	-119.323306
666.326976	-121.125521
666.475109	-122.368362
666.623307	-123.003338
666.771571	-123.319117
666.919902	-123.617472
667.068298	-124.058746
667.216761	-124.705303
667.365289	-125.572506
667.513884	-126.616217
667.662545	-127.640828
667.811272	-128.197932
667.960065	-127.828837
668.108925	-126.626293
668.257851	-125.059371
668.406843	-123.443615
668.555902	-121.893533
668.705027	-120.455397
668.854219	-119.176342
669.003478	-118.110772
669.152803	-117.306631
669.302195	-116.795378
669.451653	-116.588623
669.601179	-116.677866
669.750771	-117.035611
669.900430	-117.618298
670.050156	-118.373654
670.199949	-119.251919
670.349808	-120.210692
670.499735	-121.200015
670.649729	-122.130926
670.799790	-122.863132
670.949918	-123.247189
671.100114	-123.160495
671.250377	-122.466862
671.400707	-121.077650
671.551104	-119.161762
671.701569	-117.088232
671.852101	-115.164208
672.002700	-113.547692
672.153368	-112.296441
672.304102	-111.421739
672.454905	-110.917731
672.605775	-110.774890
672.756713	-110.986575
672.907718	-111.553551
673.058791	-112.489063
673.209933	-113.826271
673.361142	-115.629135
673.512419	-118.004551
673.663764	-121.088676
673.815177	-124.787609
673.966658	-127.412588
674.118207	-126.767197
674.269825	-125.388541
674.421510	-124.944602
674.573264	-125.566353
674.725086	-126.683514
674.876977	-126.213757
675.028936	-123.332421
675.180963	-120.174471
675.333059	-117.621010
675.485224	-115.681309
675.637457	-114.240125
675.789758	-113.198966
675.942129	-112.487285
676.094568	-112.054942
676.247075	-111.862621
676.399652	-111.872018
676.552298	-112.035889
676.705012	-112.289257
676.857795	-112.546631
677.010648	-112.713254
677.163569	-112.713590
677.316560	-112.520919
677.469619	-112.160622
677.622748	-111.684169
677.775946	-111.139638
677.929214	-110.559939
678.082551	-109.967399
678.235957	-109.383314
678.389432	-108.833733
678.542977	-108.348435
678.696592	-107.955154
678.850276	-107.672972
679.004030	-107.507169
679.157853	-107.445897
679.311746	-107.459294
679.465709	-107.503082
679.619742	-107.529816
679.773844	-107.507672
679.928017	-107.437695
680.082259	-107.355951
680.236571	-107.317621
680.390954	-107.374521
680.545406	-107.558004
680.699929	-107.870772
680.854522	-108.286596
681.009185	-108.758583
681.163918	-109.237247
681.318722	-109.693907
681.473596	-110.135634
681.628540	-110.599930
681.783555	-111.133320
681.938641	-111.766217
682.093797	-112.488297
682.249023	-113.224092
682.404321	-113.828738
682.559689	-114.155703
682.715128	-114.189979
682.870637	-114.088565
683.026218	-114.062934
683.181869	-114.261262
683.337591	-114.732550
683.493385	-115.430563
683.649249	-116.236153
683.805185	-117.026800
683.961191	-117.789639
684.117269	-118.667404
684.273418	-119.877821
684.429639	-121.602225
684.585930	-123.868428
684.742294	-126.259631
684.898728	-127.629002
685.055234	-127.434455
685.211812	-126.490771
685.368461	-125.183500
685.525182	-123.508882
685.681975	-121.701300
685.838839	-120.076161
685.995775	-118.782628
686.152783	-117.814041
686.309863	-117.090113
686.467014	-116.523358
686.624238	-116.060948
686.781534	-115.691193
686.938902	-115.413532
687.096342	-115.196993
687.253854	-114.961644
687.411438	-114.605202
687.569095	-114.066011
687.726824	-113.365254
687.884626	-112.582609
688.042499	-111.802757
688.200446	-111.088253
688.358465	-110.481483
688.516556	-110.013435
688.674720	-109.706520
688.832957	-109.570521
688.991266	-109.594398
689.149649	-109.737436
689.308104	-109.925984
689.466632	-110.067009
689.625233	-110.087597
689.783906	-109.982088
689.942653	-109.822046
690.101473	-109.718239
690.260367	-109.775117
690.419333	-110.067759
690.578372	-110.636337
690.737485	-111.480505
690.896672	-112.537819
691.055931	-113.637849
691.215264	-114.469211
691.374671	-114.702299
691.534151	-114.281938
691.693704	-113.459226
691.853332	-112.507836
692.013033	-111.572471
692.172807	-110.693588
692.332656	-109.863635
692.492578	-109.069708
692.652575	-108.321179
692.812645	-107.659425
692.972789	-107.148814
693.133007	-106.857670
693.293300	-106.839724
693.453666	-107.116716
693.614107	-107.653391
693.774622	-108.318856
693.935211	-108.866640
694.095875	-109.040548
694.256613	-108.802693
694.417426	-108.361475
694.578313	-107.947334
694.739274	-107.674204
694.900311	-107.554191
695.061421	-107.556465
695.222607	-107.656037
695.383868	-107.853905
695.545203	-108.164169
695.706613	-108.582717
695.868098	-109.060845
696.029658	-109.505388
696.191293	-109.818806
696.353003	-109.957328
696.514789	-109.946974
696.676649	-109.839359
696.838585	-109.661978
697.000596	-109.406368
697.162682	-109.048522
697.324844	-108.578510
697.487081	-108.020843
697.649394	-107.435908
697.811782	-106.903996
697.974246	-106.503257
698.136786	-106.292335
698.299401	-106.299900
698.462092	-106.517857
698.624859	-106.895911
698.787702	-107.342234
698.950621	-107.744716
699.113616	-108.020513
699.276686	-108.162886
699.439833	-108.236496
699.603056	-108.328194
699.766355	-108.505063
699.929731	-108.803842
700.093183	-109.242006
700.256711	-109.837669
700.420315	-110.633459
700.583996	-111.723878
700.747754	-113.296365
700.911588	-115.738812
701.075499	-120.092878
701.239486	-132.686013
701.403550	-123.819513
701.567691	-115.926772
701.731909	-111.694432
701.896203	-108.874903
702.060575	-106.894586
702.225024	-105.532940
702.389549	-104.688289
702.554152	-104.305548
702.718832	-104.344944
702.883589	-104.762789
703.048424	-105.495394
703.213335	-106.446085
703.378324	-107.483938
703.543391	-108.466171
703.708535	-109.273668
703.873757	-109.822454
704.039056	-110.058820
704.204433	-109.990946
704.369887	-109.719039
704.535420	-109.378971
704.701030	-109.045768
704.866718	-108.696324
705.032484	-108.257574
705.198328	-107.699242
705.364250	-107.079407
705.530250	-106.496050
705.696328	-106.011702
705.862485	-105.619214
706.028720	-105.253510
706.195033	-104.836821
706.361424	-104.334779
706.527894	-103.780609
706.694442	-103.247154
706.861069	-102.799487
707.027775	-102.465158
707.194559	-102.227205
707.361422	-102.033085
707.528363	-101.817792
707.695384	-101.537705
707.862483	-101.196266
708.029661	-100.840217
708.196918	-100.532226
708.364254	-100.325044
708.531670	-100.251586
708.699164	-100.328230
708.866738	-100.563107
709.034391	-100.962898
709.202123	-101.534155
709.369935	-102.277581
709.537826	-103.174871
709.705796	-104.168946
709.873847	-105.143674
710.041976	-105.925676
710.210186	-106.346528
710.378475	-106.352117
710.546844	-106.043094
710.715292	-105.594982
710.883821	-105.161700
711.052429	-104.832579
711.221118	-104.622589
711.389887	-104.469913
711.558735	-104.248780
711.727664	-103.827972
711.896673	-103.164824
712.065763	-102.341265
712.234932	-101.498522
712.404183	-100.758052
712.573513	-100.194259
712.742924	-99.842575
712.912416	-99.713201
713.081988	-99.798447
713.251641	-100.071917
713.421375	-100.481019
713.591190	-100.937973
713.761085	-101.323323
713.931061	-101.522160
714.101119	-101.485033
714.271257	-101.254029
714.441476	-100.918908
714.611777	-100.553616
714.782159	-100.188838
714.952622	-99.823040
715.123166	-99.449908
715.293792	-99.080260
715.464499	-98.745317
715.635288	-98.483632
715.806158	-98.325026
715.977110	-98.282314
716.148143	-98.352634
716.319259	-98.524621
716.490456	-98.786466
716.661735	-99.130903
716.833096	-99.556675
717.004538	-100.069823
717.176063	-100.688551
717.347670	-101.449834
717.519359	-102.407720
717.691130	-103.604629
717.862984	-104.975476
718.034920	-106.133558
718.206938	-106.330255
718.379039	-105.367365
718.551222	-103.980605
718.723488	-102.793873
718.895836	-102.020850
719.068267	-101.679111
719.240781	-101.714404
719.413377	-102.037285
719.586057	-102.536878
719.758819	-103.100844
719.931664	-103.635962
720.104593	-104.052991
720.277604	-104.211620
720.450699	-103.929651
720.623876	-103.149515
720.797137	-102.047177
720.970482	-100.878814
721.143910	-99.811450
721.317421	-98.904909
721.491016	-98.163336
721.664694	-97.581953
721.838456	-97.166978
722.012302	-96.926796
722.186231	-96.842719
722.360244	-96.833545
722.534342	-96.742684
722.708523	-96.400211
722.882788	-95.755112
723.057137	-94.923711
723.231570	-94.082230
723.406088	-93.356518
