# 2022-03-21_18.33.53
# shape = sech2
# FWHM_ps = 0.1
# carrier_nm = 1542
# frep_MHz = 12126
# pow_mW = 8000
# GDD = 0.0
# propa_len = 0.16
# untap_len = 0.01
# taper_len = 0.1
# waist_len = 0.02
# uptap_len = 0.02
# untap_scale = 1.0
# waist_scale = 0.26666666666666666
# workingDir = NL_20110305_12 (Spirou)
# axis = slow
# window_ps = 10.0
# steps = 200
# points = 21700
# 
# wavelength [nm]	 power spectral density [dB]
600.043425	-98.055501
600.163550	-98.046712
600.283723	-98.094245
600.403943	-98.208319
600.524212	-98.397040
600.644529	-98.661804
600.764895	-98.999381
600.885308	-99.398865
601.005770	-99.840043
601.126280	-100.297139
601.246839	-100.736850
601.367446	-101.127050
601.488101	-101.445763
601.608804	-101.686176
601.729557	-101.863380
601.850357	-102.011277
601.971206	-102.175294
602.092104	-102.396911
602.213050	-102.715033
602.334045	-103.164109
602.455089	-103.775030
602.576181	-104.572725
602.697322	-105.575896
602.818511	-106.784769
602.939749	-108.149242
603.061036	-109.503928
603.182372	-110.494461
603.303757	-110.708600
603.425191	-110.131367
603.546673	-109.168020
603.668204	-108.198418
603.789785	-107.411630
603.911414	-106.864770
604.033092	-106.565199
604.154820	-106.506651
604.276596	-106.670730
604.398422	-107.024869
604.520297	-107.513570
604.642220	-108.049912
604.764193	-108.493523
604.886216	-108.677091
605.008287	-108.504471
605.130408	-108.030189
605.252578	-107.401262
605.374798	-106.761886
605.497066	-106.218157
605.619385	-105.842065
605.741752	-105.672593
605.864169	-105.728556
605.986636	-106.019675
606.109152	-106.556236
606.231718	-107.346160
606.354333	-108.385827
606.476998	-109.622948
606.599712	-110.890245
606.722476	-111.824448
606.845290	-111.977010
606.968154	-111.261361
607.091067	-110.078047
607.214030	-108.826609
607.337043	-107.688195
607.460106	-106.709626
607.583219	-105.883292
607.706381	-105.168219
607.829594	-104.512825
607.952856	-103.871034
608.076169	-103.209417
608.199531	-102.507621
608.322944	-101.754702
608.446407	-100.959909
608.569920	-100.147333
608.693483	-99.343765
608.817096	-98.569062
608.940759	-97.834454
609.064473	-97.150446
609.188237	-96.523455
609.312051	-95.954175
609.435916	-95.442009
609.559831	-94.984556
609.683796	-94.578028
609.807812	-94.217103
609.931878	-93.896757
610.055995	-93.611029
610.180162	-93.354436
610.304380	-93.118467
610.428648	-92.893310
610.552967	-92.673843
610.677337	-92.457532
610.801757	-92.242430
610.926228	-92.024543
611.050750	-91.801900
611.175323	-91.576186
611.299946	-91.349223
611.424620	-91.122492
611.549345	-90.898986
611.674121	-90.682784
611.798948	-90.479353
611.923826	-90.293702
612.048755	-90.129230
612.173734	-89.988917
612.298765	-89.873302
612.423847	-89.781056
612.548980	-89.708954
612.674165	-89.652070
612.799400	-89.601250
612.924687	-89.545687
613.050025	-89.475079
613.175414	-89.381379
613.300854	-89.258255
613.426346	-89.103001
613.551889	-88.917685
613.677484	-88.708837
613.803130	-88.484468
613.928827	-88.252920
614.054576	-88.022824
614.180377	-87.801528
614.306229	-87.593522
614.432132	-87.400822
614.558087	-87.224393
614.684094	-87.064337
614.810153	-86.918278
614.936263	-86.780411
615.062425	-86.643439
615.188639	-86.501167
615.314904	-86.347760
615.441222	-86.178125
615.567591	-85.990155
615.694012	-85.785404
615.820486	-85.568565
615.947011	-85.345566
616.073588	-85.122474
616.200217	-84.905925
616.326898	-84.701705
616.453632	-84.514199
616.580417	-84.346859
616.707255	-84.202686
616.834144	-84.082810
616.961086	-83.986332
617.088081	-83.910984
617.215127	-83.853881
617.342226	-83.810603
617.469378	-83.775035
617.596581	-83.741579
617.723837	-83.706184
617.851146	-83.665245
617.978507	-83.616139
618.105920	-83.557581
618.233386	-83.490781
618.360905	-83.417410
618.488476	-83.339678
618.616100	-83.260423
618.743777	-83.183298
618.871506	-83.111769
618.999288	-83.049020
619.127123	-82.996777
619.255011	-82.956372
619.382951	-82.928380
619.510945	-82.911465
619.638991	-82.903696
619.767090	-82.902347
619.895243	-82.904653
620.023448	-82.906655
620.151706	-82.903769
620.280017	-82.892392
620.408382	-82.870160
620.536799	-82.835761
620.665270	-82.789028
620.793794	-82.730533
620.922371	-82.662252
621.051002	-82.586718
621.179686	-82.506567
621.308423	-82.424982
621.437213	-82.345758
621.566057	-82.272222
621.694954	-82.206703
621.823905	-82.151291
621.952909	-82.107888
622.081967	-82.078020
622.211079	-82.061809
622.340244	-82.059019
622.469462	-82.068584
622.598735	-82.088988
622.728061	-82.118291
622.857441	-82.154900
622.986874	-82.198000
623.116361	-82.245888
623.245903	-82.296952
623.375498	-82.349475
623.505147	-82.402723
623.634850	-82.456088
623.764606	-82.509307
623.894417	-82.563043
624.024282	-82.618490
624.154201	-82.677242
624.284174	-82.740172
624.414202	-82.808329
624.544283	-82.882500
624.674419	-82.962728
624.804609	-83.048703
624.934853	-83.140507
625.065151	-83.238253
625.195504	-83.341267
625.325911	-83.448275
625.456373	-83.558491
625.586889	-83.671972
625.717460	-83.788766
625.848085	-83.907988
625.978764	-84.028056
626.109498	-84.147215
626.240287	-84.263681
626.371131	-84.376455
626.502029	-84.484774
626.632982	-84.588639
626.763989	-84.688265
626.895052	-84.783872
627.026169	-84.877049
627.157341	-84.970092
627.288568	-85.065330
627.419850	-85.165082
627.551187	-85.272976
627.682579	-85.393730
627.814026	-85.531252
627.945528	-85.688276
628.077085	-85.866377
628.208697	-86.067489
628.340364	-86.294639
628.472087	-86.549791
628.603865	-86.832636
628.735698	-87.139942
628.867586	-87.467720
628.999530	-87.809993
629.131529	-88.156973
629.263584	-88.496870
629.395694	-88.819115
629.527859	-89.116344
629.660080	-89.381132
629.792357	-89.605397
629.924689	-89.784248
630.057077	-89.922121
630.189520	-90.028811
630.322019	-90.113122
630.454574	-90.182945
630.587184	-90.246912
630.719851	-90.314712
630.852573	-90.392537
630.985351	-90.481877
631.118185	-90.582190
631.251075	-90.690814
631.384021	-90.802004
631.517023	-90.907729
631.650081	-90.999502
631.783195	-91.068327
631.916365	-91.104231
632.049592	-91.101611
632.182874	-91.062318
632.316213	-90.991247
632.449608	-90.891422
632.583059	-90.764632
632.716567	-90.617393
632.850131	-90.460699
632.983751	-90.302336
633.117428	-90.146853
633.251161	-89.997748
633.384951	-89.855479
633.518797	-89.714126
633.652700	-89.567490
633.786660	-89.412070
633.920676	-89.242761
634.054749	-89.049974
634.188879	-88.825113
634.323065	-88.565807
634.457308	-88.273639
634.591608	-87.949535
634.725965	-87.596469
634.860379	-87.223719
634.994850	-86.844184
635.129377	-86.467538
635.263962	-86.101120
635.398604	-85.752708
635.533303	-85.428780
635.668058	-85.132491
635.802872	-84.866482
635.937742	-84.632789
636.072669	-84.429602
636.207654	-84.252272
636.342696	-84.097081
636.477796	-83.962419
636.612953	-83.845839
636.748167	-83.742416
636.883439	-83.647381
637.018768	-83.557262
637.154155	-83.469129
637.289599	-83.379839
637.425101	-83.285885
637.560660	-83.184091
637.696277	-83.071908
637.831952	-82.948300
637.967685	-82.813481
638.103475	-82.668891
638.239324	-82.516405
638.375230	-82.357143
638.511194	-82.193740
638.647215	-82.030427
638.783295	-81.871686
638.919433	-81.719012
639.055629	-81.572312
639.191883	-81.432253
639.328195	-81.300758
639.464565	-81.178735
639.600994	-81.065146
639.737481	-80.958624
639.874025	-80.859249
640.010629	-80.768284
640.147290	-80.687626
640.284010	-80.618377
640.420789	-80.560480
640.557625	-80.514267
640.694521	-80.481219
640.831474	-80.463117
640.968487	-80.459292
641.105558	-80.467648
641.242687	-80.486734
641.379876	-80.514765
641.517123	-80.548162
641.654429	-80.582942
641.791793	-80.615779
641.929216	-80.643382
642.066699	-80.663048
642.204240	-80.673664
642.341840	-80.674049
642.479499	-80.663196
642.617217	-80.640555
642.754994	-80.607645
642.892830	-80.567416
643.030726	-80.523111
643.168680	-80.476457
643.306694	-80.429524
643.444767	-80.386184
643.582899	-80.351488
643.721091	-80.327634
643.859342	-80.316551
643.997652	-80.321550
644.136022	-80.345889
644.274451	-80.389437
644.412940	-80.451569
644.551488	-80.532882
644.690096	-80.633403
644.828763	-80.751131
644.967490	-80.883519
645.106277	-81.027910
645.245124	-81.181532
645.384030	-81.339659
645.522997	-81.495892
645.662023	-81.645950
645.801109	-81.787336
645.940255	-81.917054
646.079460	-82.031640
646.218726	-82.130260
646.358052	-82.214616
646.497438	-82.286800
646.636884	-82.349256
646.776391	-82.404965
646.915957	-82.458515
647.055584	-82.514201
647.195271	-82.576271
647.335019	-82.647337
647.474826	-82.728634
647.614695	-82.819912
647.754623	-82.922080
647.894612	-83.034665
648.034662	-83.156909
648.174772	-83.286236
648.314943	-83.419612
648.455174	-83.556391
648.595466	-83.697355
648.735819	-83.841178
648.876233	-83.986745
649.016707	-84.134887
649.157242	-84.284589
649.297838	-84.432532
649.438495	-84.576499
649.579213	-84.712908
649.719992	-84.836966
649.860832	-84.944250
650.001733	-85.032589
650.142695	-85.102161
650.283718	-85.153452
650.424803	-85.182741
650.565949	-85.186677
650.707156	-85.167155
650.848424	-85.126683
650.989754	-85.065848
651.131145	-84.984713
651.272597	-84.882488
651.414111	-84.761854
651.555687	-84.626757
651.697324	-84.479653
651.839022	-84.318981
651.980782	-84.143785
652.122604	-83.956960
652.264488	-83.762842
652.406433	-83.564781
652.548441	-83.363485
652.690510	-83.160606
652.832640	-82.959924
652.974833	-82.766218
653.117088	-82.582272
653.259405	-82.408851
653.401784	-82.244971
653.544224	-82.089928
653.686727	-81.944580
653.829293	-81.807963
653.971920	-81.676480
654.114609	-81.546980
654.257361	-81.417223
654.400175	-81.285809
654.543052	-81.150098
654.685991	-81.006256
654.828992	-80.852917
654.972056	-80.692099
655.115183	-80.526584
655.258372	-80.358120
655.401623	-80.187290
655.544937	-80.014418
655.688314	-79.842086
655.831754	-79.675583
655.975256	-79.518672
656.118822	-79.371094
656.262450	-79.231687
656.406141	-79.102127
656.549894	-78.985619
656.693711	-78.882830
656.837591	-78.791920
656.981534	-78.711433
657.125540	-78.640365
657.269610	-78.579326
657.413742	-78.528316
657.557938	-78.485131
657.702196	-78.446572
657.846519	-78.410805
657.990904	-78.378268
658.135353	-78.348581
658.279866	-78.319105
658.424441	-78.288517
658.569081	-78.257484
658.713784	-78.226626
658.858550	-78.195533
659.003381	-78.163531
659.148274	-78.130509
659.293232	-78.096326
659.438253	-78.061574
659.583339	-78.027179
659.728488	-77.993138
659.873701	-77.959602
660.018978	-77.928753
660.164318	-77.903178
660.309723	-77.883434
660.455192	-77.870139
660.600725	-77.865898
660.746323	-77.872379
660.891984	-77.888341
661.037710	-77.913994
661.183500	-77.950920
661.329354	-78.000305
661.475272	-78.060811
661.621255	-78.130229
661.767303	-78.208994
661.913415	-78.299483
662.059591	-78.402654
662.205833	-78.515242
662.352138	-78.633869
662.498509	-78.761218
662.644944	-78.900871
662.791443	-79.050918
662.938008	-79.207683
663.084638	-79.371972
663.231332	-79.546117
663.378091	-79.728526
663.524915	-79.915436
663.671804	-80.106077
663.818759	-80.297926
663.965778	-80.484409
664.112863	-80.658247
664.260012	-80.814307
664.407227	-80.947201
664.554507	-81.049495
664.701853	-81.114755
664.849264	-81.140193
664.996740	-81.126838
665.144282	-81.074674
665.291889	-80.982019
665.439561	-80.853092
665.587300	-80.697869
665.735103	-80.522234
665.882973	-80.327982
666.030908	-80.121334
666.178909	-79.912984
666.326976	-79.709850
666.475109	-79.515549
666.623307	-79.332510
666.771571	-79.162644
666.919902	-79.007705
667.068298	-78.868491
667.216761	-78.743916
667.365289	-78.632263
667.513884	-78.533139
667.662545	-78.444535
667.811272	-78.362130
667.960065	-78.283598
668.108925	-78.205495
668.257851	-78.121149
668.406843	-78.026286
668.555902	-77.921248
668.705027	-77.805498
668.854219	-77.678313
669.003478	-77.542476
669.152803	-77.401507
669.302195	-77.258476
669.451653	-77.117258
669.601179	-76.981816
669.750771	-76.854429
669.900430	-76.736495
670.050156	-76.630156
670.199949	-76.537576
670.349808	-76.460760
670.499735	-76.400305
670.649729	-76.355962
670.799790	-76.328427
670.949918	-76.317725
671.100114	-76.321362
671.250377	-76.335636
671.400707	-76.359049
671.551104	-76.391394
671.701569	-76.430784
671.852101	-76.474444
672.002700	-76.520692
672.153368	-76.570089
672.304102	-76.622026
672.454905	-76.676383
672.605775	-76.734026
672.756713	-76.796159
672.907718	-76.862750
673.058791	-76.933632
673.209933	-77.010953
673.361142	-77.097486
673.512419	-77.194704
673.663764	-77.300787
673.815177	-77.416402
673.966658	-77.544940
674.118207	-77.686973
674.269825	-77.839463
674.421510	-77.999738
674.573264	-78.166768
674.725086	-78.338078
674.876977	-78.510449
675.028936	-78.678706
675.180963	-78.837982
675.333059	-78.982955
675.485224	-79.106779
675.637457	-79.204412
675.789758	-79.273748
675.942129	-79.312289
676.094568	-79.316555
676.247075	-79.286020
676.399652	-79.222065
676.552298	-79.125593
676.705012	-78.997065
676.857795	-78.836653
677.010648	-78.647797
677.163569	-78.436266
677.316560	-78.206115
677.469619	-77.961618
677.622748	-77.710098
677.775946	-77.456834
677.929214	-77.202568
678.082551	-76.948106
678.235957	-76.696037
678.389432	-76.448984
678.542977	-76.209163
678.696592	-75.977305
678.850276	-75.755469
679.004030	-75.547197
679.157853	-75.353917
679.311746	-75.175148
679.465709	-75.011168
679.619742	-74.862775
679.773844	-74.729146
679.928017	-74.609278
680.082259	-74.501825
680.236571	-74.405273
680.390954	-74.317878
680.545406	-74.237356
680.699929	-74.161541
680.854522	-74.088827
681.009185	-74.016932
681.163918	-73.942258
681.318722	-73.862495
681.473596	-73.777777
681.628540	-73.689821
681.783555	-73.600142
681.938641	-73.509887
682.093797	-73.419880
682.249023	-73.332149
682.404321	-73.248096
682.559689	-73.168241
682.715128	-73.094313
682.870637	-73.028299
683.026218	-72.971620
683.181869	-72.925461
683.337591	-72.891617
683.493385	-72.872340
683.649249	-72.868440
683.805185	-72.879065
683.961191	-72.903951
684.117269	-72.943392
684.273418	-72.995655
684.429639	-73.057504
684.585930	-73.125962
684.742294	-73.199850
684.898728	-73.277463
685.055234	-73.354957
685.211812	-73.430907
685.368461	-73.505838
685.525182	-73.579165
685.681975	-73.650138
685.838839	-73.719184
685.995775	-73.787981
686.152783	-73.856508
686.309863	-73.924319
686.467014	-73.991745
686.624238	-74.058638
686.781534	-74.122922
686.938902	-74.183520
687.096342	-74.241663
687.253854	-74.298243
687.411438	-74.352367
687.569095	-74.403647
687.726824	-74.453152
687.884626	-74.499788
688.042499	-74.541089
688.200446	-74.575702
688.358465	-74.603888
688.516556	-74.625703
688.674720	-74.640860
688.832957	-74.650492
688.991266	-74.657403
689.149649	-74.663555
689.308104	-74.668219
689.466632	-74.671744
689.625233	-74.675292
689.783906	-74.679770
689.942653	-74.684097
690.101473	-74.685408
690.260367	-74.682352
690.419333	-74.676527
690.578372	-74.668176
690.737485	-74.653424
690.896672	-74.628781
691.055931	-74.594885
691.215264	-74.550197
691.374671	-74.490472
691.534151	-74.415286
691.693704	-74.327414
691.853332	-74.229520
692.013033	-74.124094
692.172807	-74.014255
692.332656	-73.903301
692.492578	-73.792467
692.652575	-73.683139
692.812645	-73.576958
692.972789	-73.474233
693.133007	-73.373323
693.293300	-73.271279
693.453666	-73.166434
693.614107	-73.059153
693.774622	-72.948173
693.935211	-72.829984
694.095875	-72.701246
694.256613	-72.561657
694.417426	-72.412771
694.578313	-72.255379
694.739274	-72.090934
694.900311	-71.922831
695.061421	-71.754718
695.222607	-71.589340
695.383868	-71.429183
695.545203	-71.276474
695.706613	-71.132401
695.868098	-70.996218
696.029658	-70.868588
696.191293	-70.750692
696.353003	-70.642667
696.514789	-70.543537
696.676649	-70.452189
696.838585	-70.367691
697.000596	-70.289240
697.162682	-70.216860
697.324844	-70.150212
697.487081	-70.087692
697.649394	-70.029912
697.811782	-69.979093
697.974246	-69.935333
698.136786	-69.897903
698.299401	-69.867584
698.462092	-69.844977
698.624859	-69.829527
698.787702	-69.820922
698.950621	-69.820078
699.113616	-69.826992
699.276686	-69.841315
699.439833	-69.863947
699.603056	-69.894738
699.766355	-69.932821
699.929731	-69.976962
700.093183	-70.025635
700.256711	-70.077679
700.420315	-70.132382
700.583996	-70.188463
700.747754	-70.245222
700.911588	-70.303152
701.075499	-70.364788
701.239486	-70.431454
701.403550	-70.502728
701.567691	-70.578876
701.731909	-70.661327
701.896203	-70.751810
702.060575	-70.850651
702.225024	-70.958231
702.389549	-71.075172
702.554152	-71.201919
702.718832	-71.338539
702.883589	-71.482573
703.048424	-71.631237
703.213335	-71.782003
703.378324	-71.932861
703.543391	-72.083075
703.708535	-72.232299
703.873757	-72.380593
704.039056	-72.528868
704.204433	-72.679607
704.369887	-72.833894
704.535420	-72.991028
704.701030	-73.149544
704.866718	-73.308360
705.032484	-73.467821
705.198328	-73.627456
705.364250	-73.788284
705.530250	-73.952192
705.696328	-74.121199
705.862485	-74.295835
706.028720	-74.474136
706.195033	-74.651846
706.361424	-74.821625
706.527894	-74.976298
706.694442	-75.105165
706.861069	-75.197303
707.027775	-75.244663
707.194559	-75.243569
707.361422	-75.192403
707.528363	-75.094367
707.695384	-74.956867
707.862483	-74.788366
708.029661	-74.599322
708.196918	-74.400031
708.364254	-74.197579
708.531670	-73.995207
708.699164	-73.793169
708.866738	-73.589867
709.034391	-73.381708
709.202123	-73.166529
709.369935	-72.942018
709.537826	-72.707232
709.705796	-72.464310
709.873847	-72.217581
710.041976	-71.970300
710.210186	-71.726391
710.378475	-71.490097
710.546844	-71.265047
710.715292	-71.054506
710.883821	-70.859951
711.052429	-70.682079
711.221118	-70.520647
711.389887	-70.375396
711.558735	-70.243761
711.727664	-70.122574
711.896673	-70.008376
712.065763	-69.896847
712.234932	-69.785439
712.404183	-69.672282
712.573513	-69.555771
712.742924	-69.435742
712.912416	-69.315033
713.081988	-69.195228
713.251641	-69.077525
713.421375	-68.962468
713.591190	-68.851740
713.761085	-68.747256
713.931061	-68.650142
714.101119	-68.560428
714.271257	-68.478562
714.441476	-68.405934
714.611777	-68.342516
714.782159	-68.287481
714.952622	-68.239637
715.123166	-68.196894
715.293792	-68.156718
715.464499	-68.117149
715.635288	-68.076738
715.806158	-68.034980
715.977110	-67.991856
716.148143	-67.946823
716.319259	-67.900287
716.490456	-67.853477
716.661735	-67.806835
716.833096	-67.759723
717.004538	-67.712179
717.176063	-67.664874
717.347670	-67.618916
717.519359	-67.575849
717.691130	-67.536538
717.862984	-67.501227
718.034920	-67.470471
718.206938	-67.444223
718.379039	-67.421428
718.551222	-67.400233
718.723488	-67.378626
718.895836	-67.355848
719.068267	-67.331628
719.240781	-67.305884
719.413377	-67.279203
719.586057	-67.253001
719.758819	-67.228142
719.931664	-67.205026
720.104593	-67.183728
720.277604	-67.164992
720.450699	-67.149071
720.623876	-67.136965
720.797137	-67.128876
720.970482	-67.124553
721.143910	-67.124572
721.317421	-67.128893
721.491016	-67.135753
721.664694	-67.142862
721.838456	-67.148749
722.012302	-67.153311
722.186231	-67.155392
722.360244	-67.154134
722.534342	-67.150741
722.708523	-67.147029
722.882788	-67.144075
723.057137	-67.143057
723.231570	-67.144636
723.406088	-67.150125
723.580689	-67.159989
723.755375	-67.173744
723.930146	-67.190822
724.105000	-67.211466
724.279940	-67.234099
724.454963	-67.256394
724.630072	-67.275953
724.805265	-67.291126
724.980543	-67.301205
725.155905	-67.306957
725.331353	-67.309536
725.506885	-67.310312
725.682503	-67.310040
725.858205	-67.310221
726.033993	-67.313035
726.209865	-67.318143
726.385823	-67.323281
726.561866	-67.328251
726.737995	-67.333482
726.914209	-67.338475
727.090508	-67.342858
727.266893	-67.345824
727.443364	-67.346941
727.619920	-67.345260
727.796562	-67.338945
727.973290	-67.326705
728.150103	-67.308965
728.327003	-67.286783
728.503988	-67.261129
728.681060	-67.234701
728.858218	-67.211036
729.035461	-67.192243
729.212791	-67.177759
729.390208	-67.167012
