# 2022-03-22_13.27.22
# shape = sech2
# FWHM_ps = 0.11
# carrier_nm = 1542
# frep_MHz = 12126
# pow_mW = 8000
# GDD = 0.0
# propa_len = 0.16
# untap_len = 0.01
# taper_len = 0.1
# waist_len = 0.02
# uptap_len = 0.02
# untap_scale = 1.0
# waist_scale = 0.27368421052631586
# workingDir = NL_20110305_12 (Spirou)
# axis = slow
# window_ps = 10.0
# steps = 200
# points = 21700
# 
# wavelength [nm]	 power spectral density [dB]
600.043425	-75.644932
600.163550	-75.606568
600.283723	-75.572194
600.403943	-75.538112
600.524212	-75.502584
600.644529	-75.464043
600.764895	-75.421672
600.885308	-75.375344
601.005770	-75.325366
601.126280	-75.272913
601.246839	-75.219746
601.367446	-75.167969
601.488101	-75.119562
601.608804	-75.075969
601.729557	-75.038224
601.850357	-75.006875
601.971206	-74.981541
602.092104	-74.961230
602.213050	-74.944235
602.334045	-74.928802
602.455089	-74.913029
602.576181	-74.895102
602.697322	-74.873855
602.818511	-74.848434
602.939749	-74.818821
603.061036	-74.785894
603.182372	-74.751076
603.303757	-74.716164
603.425191	-74.682896
603.546673	-74.653014
603.668204	-74.627814
603.789785	-74.608239
603.911414	-74.594501
604.033092	-74.586021
604.154820	-74.581618
604.276596	-74.579834
604.398422	-74.578927
604.520297	-74.577036
604.642220	-74.572573
604.764193	-74.564230
604.886216	-74.551577
605.008287	-74.534673
605.130408	-74.514155
605.252578	-74.491196
605.374798	-74.467164
605.497066	-74.443740
605.619385	-74.422310
605.741752	-74.404000
605.864169	-74.389617
605.986636	-74.379510
606.109152	-74.373152
606.231718	-74.369976
606.354333	-74.368666
606.476998	-74.367650
606.599712	-74.365191
606.722476	-74.359779
606.845290	-74.350061
606.968154	-74.335353
607.091067	-74.315410
607.214030	-74.290425
607.337043	-74.261169
607.460106	-74.228773
607.583219	-74.194781
607.706381	-74.160600
607.829594	-74.127574
607.952856	-74.096556
608.076169	-74.068031
608.199531	-74.041966
608.322944	-74.018002
608.446407	-73.995404
608.569920	-73.973101
608.693483	-73.949790
608.817096	-73.924186
608.940759	-73.895065
609.064473	-73.861529
609.188237	-73.823012
609.312051	-73.779367
609.435916	-73.730810
609.559831	-73.677871
609.683796	-73.621397
609.807812	-73.562407
609.931878	-73.502267
610.055995	-73.442100
610.180162	-73.382929
610.304380	-73.325175
610.428648	-73.269357
610.552967	-73.215464
610.677337	-73.163270
610.801757	-73.112179
610.926228	-73.061373
611.050750	-73.010011
611.175323	-72.957323
611.299946	-72.902640
611.424620	-72.845273
611.549345	-72.784620
611.674121	-72.720650
611.798948	-72.653341
611.923826	-72.583139
612.048755	-72.510519
612.173734	-72.436207
612.298765	-72.361169
612.423847	-72.286291
612.548980	-72.212405
612.674165	-72.139918
612.799400	-72.069243
612.924687	-72.000621
613.050025	-71.934270
613.175414	-71.870147
613.300854	-71.807883
613.426346	-71.747075
613.551889	-71.687087
613.677484	-71.627377
613.803130	-71.567375
613.928827	-71.506566
614.054576	-71.444541
614.180377	-71.381015
614.306229	-71.315916
614.432132	-71.249283
614.558087	-71.181399
614.684094	-71.112649
614.810153	-71.043670
614.936263	-70.975314
615.062425	-70.908319
615.188639	-70.843260
615.314904	-70.780518
615.441222	-70.720105
615.567591	-70.662081
615.694012	-70.606319
615.820486	-70.552490
615.947011	-70.500159
616.073588	-70.448831
616.200217	-70.397916
616.326898	-70.346968
616.453632	-70.295482
616.580417	-70.242940
616.707255	-70.189151
616.834144	-70.134028
616.961086	-70.077832
617.088081	-70.020811
617.215127	-69.963455
617.342226	-69.906370
617.469378	-69.850252
617.596581	-69.795780
617.723837	-69.743354
617.851146	-69.693407
617.978507	-69.646270
618.105920	-69.602285
618.233386	-69.561401
618.360905	-69.523491
618.488476	-69.488324
618.616100	-69.455826
618.743777	-69.425753
618.871506	-69.397727
618.999288	-69.371142
619.127123	-69.345612
619.255011	-69.320970
619.382951	-69.297351
619.510945	-69.274761
619.638991	-69.253325
619.767090	-69.233355
619.895243	-69.215362
620.023448	-69.200009
620.151706	-69.187708
620.280017	-69.178862
620.408382	-69.173987
620.536799	-69.173557
620.665270	-69.178011
620.793794	-69.187361
620.922371	-69.201634
621.051002	-69.220715
621.179686	-69.244503
621.308423	-69.272663
621.437213	-69.304657
621.566057	-69.340109
621.694954	-69.378580
621.823905	-69.419713
621.952909	-69.462942
622.081967	-69.507693
622.211079	-69.553577
622.340244	-69.600343
622.469462	-69.647702
622.598735	-69.695455
622.728061	-69.743566
622.857441	-69.792222
622.986874	-69.841737
623.116361	-69.892389
623.245903	-69.944264
623.375498	-69.997525
623.505147	-70.052292
623.634850	-70.108660
623.764606	-70.166522
623.894417	-70.225652
624.024282	-70.285799
624.154201	-70.346699
624.284174	-70.407999
624.414202	-70.469118
624.544283	-70.529486
624.674419	-70.588421
624.804609	-70.645587
624.934853	-70.700478
625.065151	-70.752612
625.195504	-70.801328
625.325911	-70.846043
625.456373	-70.886626
625.586889	-70.923119
625.717460	-70.955597
625.848085	-70.983992
625.978764	-71.008409
626.109498	-71.029459
626.240287	-71.047991
626.371131	-71.064743
626.502029	-71.080052
626.632982	-71.094007
626.763989	-71.106752
626.895052	-71.118590
627.026169	-71.129598
627.157341	-71.139356
627.288568	-71.147611
627.419850	-71.154413
627.551187	-71.159926
627.682579	-71.164077
627.814026	-71.166266
627.945528	-71.165871
628.077085	-71.162662
628.208697	-71.156530
628.340364	-71.147552
628.472087	-71.135720
628.603865	-71.121032
628.735698	-71.103467
628.867586	-71.083082
628.999530	-71.060043
629.131529	-71.034800
629.263584	-71.008090
629.395694	-70.980645
629.527859	-70.952834
629.660080	-70.924840
629.792357	-70.896813
629.924689	-70.869242
630.057077	-70.842720
630.189520	-70.817478
630.322019	-70.793639
630.454574	-70.771011
630.587184	-70.749543
630.719851	-70.729318
630.852573	-70.710484
630.985351	-70.692996
631.118185	-70.676608
631.251075	-70.660892
631.384021	-70.645679
631.517023	-70.630999
631.650081	-70.616944
631.783195	-70.603723
631.916365	-70.591206
632.049592	-70.579415
632.182874	-70.568439
632.316213	-70.558687
632.449608	-70.550428
632.583059	-70.543879
632.716567	-70.538924
632.850131	-70.535669
632.983751	-70.534244
633.117428	-70.534767
633.251161	-70.537521
633.384951	-70.542695
633.518797	-70.550470
633.652700	-70.560961
633.786660	-70.574146
633.920676	-70.590177
634.054749	-70.609240
634.188879	-70.631699
634.323065	-70.657502
634.457308	-70.686625
634.591608	-70.718900
634.725965	-70.754530
634.860379	-70.793565
634.994850	-70.835944
635.129377	-70.881456
635.263962	-70.929778
635.398604	-70.980891
635.533303	-71.034804
635.668058	-71.091483
635.802872	-71.150383
635.937742	-71.210996
636.072669	-71.273103
636.207654	-71.336766
636.342696	-71.402121
636.477796	-71.468814
636.612953	-71.536528
636.748167	-71.605033
636.883439	-71.674526
637.018768	-71.745410
637.154155	-71.818057
637.289599	-71.892623
637.425101	-71.969268
637.560660	-72.048315
637.696277	-72.130214
637.831952	-72.215295
637.967685	-72.303799
638.103475	-72.395663
638.239324	-72.491173
638.375230	-72.590642
638.511194	-72.694117
638.647215	-72.801685
638.783295	-72.913196
638.919433	-73.028642
639.055629	-73.148087
639.191883	-73.271356
639.328195	-73.398530
639.464565	-73.529572
639.600994	-73.664648
639.737481	-73.803738
639.874025	-73.946450
640.010629	-74.092473
640.147290	-74.241742
640.284010	-74.394286
640.420789	-74.550049
640.557625	-74.708748
640.694521	-74.870200
640.831474	-75.034035
640.968487	-75.199666
641.105558	-75.366836
641.242687	-75.535476
641.379876	-75.705477
641.517123	-75.876683
641.654429	-76.047990
641.791793	-76.218229
641.929216	-76.386511
642.066699	-76.552566
642.204240	-76.716228
642.341840	-76.877695
642.479499	-77.036450
642.617217	-77.192437
642.754994	-77.346318
642.892830	-77.499469
643.030726	-77.652071
643.168680	-77.803727
643.306694	-77.953998
643.444767	-78.103951
643.582899	-78.255334
643.721091	-78.409019
643.859342	-78.564887
643.997652	-78.722383
644.136022	-78.882523
644.274451	-79.047726
644.412940	-79.219829
644.551488	-79.399430
644.690096	-79.586464
644.828763	-79.781262
644.967490	-79.984784
645.106277	-80.197197
645.245124	-80.418072
645.384030	-80.646725
645.522997	-80.881761
645.662023	-81.120873
645.801109	-81.360260
645.940255	-81.596407
646.079460	-81.827769
646.218726	-82.054304
646.358052	-82.274529
646.497438	-82.485208
646.636884	-82.683584
646.776391	-82.870087
646.915957	-83.045264
647.055584	-83.206643
647.195271	-83.348787
647.335019	-83.467219
647.474826	-83.561921
647.614695	-83.633089
647.754623	-83.680268
647.894612	-83.702541
648.034662	-83.701989
648.174772	-83.683588
648.314943	-83.652566
648.455174	-83.613652
648.595466	-83.571855
648.735819	-83.533303
648.876233	-83.502171
649.016707	-83.481731
649.157242	-83.472775
649.297838	-83.476856
649.438495	-83.494938
649.579213	-83.527565
649.719992	-83.573799
649.860832	-83.633205
650.001733	-83.706481
650.142695	-83.795187
650.283718	-83.900758
650.424803	-84.025297
650.565949	-84.170445
650.707156	-84.336421
650.848424	-84.522084
650.989754	-84.726940
651.131145	-84.951889
651.272597	-85.197779
651.414111	-85.459948
651.555687	-85.728453
651.697324	-85.993333
651.839022	-86.249057
651.980782	-86.491460
652.122604	-86.712641
652.264488	-86.899706
652.406433	-87.039515
652.548441	-87.126203
652.690510	-87.160078
652.832640	-87.143555
652.974833	-87.076793
653.117088	-86.960289
653.259405	-86.797377
653.401784	-86.594261
653.544224	-86.355643
653.686727	-86.083823
653.829293	-85.780122
653.971920	-85.447591
654.114609	-85.090453
654.257361	-84.712673
654.400175	-84.317422
654.543052	-83.909489
654.685991	-83.495850
654.828992	-83.083962
654.972056	-82.678995
655.115183	-82.283922
655.258372	-81.901033
655.401623	-81.534103
655.544937	-81.187240
655.688314	-80.863162
655.831754	-80.561691
655.975256	-80.281740
656.118822	-80.023306
656.262450	-79.788160
656.406141	-79.577040
656.549894	-79.387249
656.693711	-79.215058
656.837591	-79.059046
656.981534	-78.919867
657.125540	-78.797601
657.269610	-78.690910
657.413742	-78.597687
657.557938	-78.517054
657.702196	-78.448719
657.846519	-78.392386
657.990904	-78.346314
658.135353	-78.308900
658.279866	-78.278266
658.424441	-78.251805
658.569081	-78.225227
658.713784	-78.194478
658.858550	-78.157185
659.003381	-78.111634
659.148274	-78.055784
659.293232	-77.986891
659.438253	-77.904969
659.583339	-77.812682
659.728488	-77.713779
659.873701	-77.610424
660.018978	-77.504244
660.164318	-77.397502
660.309723	-77.293363
660.455192	-77.194312
660.600725	-77.101970
660.746323	-77.017975
660.891984	-76.944183
661.037710	-76.881672
661.183500	-76.830316
661.329354	-76.790106
661.475272	-76.761418
661.621255	-76.744910
661.767303	-76.741001
661.913415	-76.749826
662.059591	-76.771554
662.205833	-76.806956
662.352138	-76.857092
662.498509	-76.923385
662.644944	-77.006342
662.791443	-77.106226
662.938008	-77.222371
663.084638	-77.354025
663.231332	-77.498954
663.378091	-77.654189
663.524915	-77.816604
663.671804	-77.983137
663.818759	-78.149324
663.965778	-78.309674
664.112863	-78.457506
664.260012	-78.589252
664.407227	-78.703535
664.554507	-78.798975
664.701853	-78.872378
664.849264	-78.920751
664.996740	-78.944559
665.144282	-78.946691
665.291889	-78.928178
665.439561	-78.888290
665.587300	-78.826937
665.735103	-78.747495
665.882973	-78.654338
666.030908	-78.550185
666.178909	-78.436107
666.326976	-78.314227
666.475109	-78.189434
666.623307	-78.065996
666.771571	-77.945902
666.919902	-77.829698
667.068298	-77.719660
667.216761	-77.618847
667.365289	-77.529479
667.513884	-77.451543
667.662545	-77.385786
667.811272	-77.333294
667.960065	-77.294864
668.108925	-77.269581
668.257851	-77.255652
668.406843	-77.249781
668.555902	-77.248526
668.705027	-77.248681
668.854219	-77.247944
669.003478	-77.244108
669.152803	-77.233889
669.302195	-77.214154
669.451653	-77.183565
669.601179	-77.141947
669.750771	-77.089165
669.900430	-77.025281
670.050156	-76.952122
670.199949	-76.872225
670.349808	-76.787096
670.499735	-76.698806
670.649729	-76.610998
670.799790	-76.527829
670.949918	-76.452252
671.100114	-76.385628
671.250377	-76.328178
671.400707	-76.280951
671.551104	-76.245091
671.701569	-76.220772
671.852101	-76.207477
672.002700	-76.203836
672.153368	-76.208967
672.304102	-76.223017
672.454905	-76.245786
672.605775	-76.275202
672.756713	-76.308697
672.907718	-76.344753
673.058791	-76.382927
673.209933	-76.422327
673.361142	-76.459449
673.512419	-76.489805
673.663764	-76.510442
673.815177	-76.520469
673.966658	-76.519457
674.118207	-76.504852
674.269825	-76.473616
674.421510	-76.422751
674.573264	-76.350989
674.725086	-76.258042
674.876977	-76.144045
675.028936	-76.008218
675.180963	-75.850913
675.333059	-75.673392
675.485224	-75.477183
675.637457	-75.263403
675.789758	-75.033778
675.942129	-74.790516
676.094568	-74.537308
676.247075	-74.277524
676.399652	-74.013091
676.552298	-73.745219
676.705012	-73.475326
676.857795	-73.205619
677.010648	-72.938822
677.163569	-72.676064
677.316560	-72.417161
677.469619	-72.162512
677.622748	-71.913445
677.775946	-71.672053
677.929214	-71.439638
678.082551	-71.216101
678.235957	-71.000660
678.389432	-70.793216
678.542977	-70.594452
678.696592	-70.404578
678.850276	-70.222676
679.004030	-70.047309
679.157853	-69.877965
679.311746	-69.714908
679.465709	-69.558369
679.619742	-69.408102
679.773844	-69.263429
679.928017	-69.123770
680.082259	-68.988855
680.236571	-68.858319
680.390954	-68.731579
680.545406	-68.608155
680.699929	-68.487986
680.854522	-68.371468
681.009185	-68.259054
681.163918	-68.150767
681.318722	-68.046498
681.473596	-67.946492
681.628540	-67.851051
681.783555	-67.759778
681.938641	-67.671964
682.093797	-67.587665
682.249023	-67.507517
682.404321	-67.432319
682.559689	-67.362528
682.715128	-67.297967
682.870637	-67.238259
683.026218	-67.183665
683.181869	-67.135221
683.337591	-67.093854
683.493385	-67.059727
683.649249	-67.032763
683.805185	-67.013563
683.961191	-67.003493
684.117269	-67.003687
684.273418	-67.014358
684.429639	-67.035816
684.585930	-67.069088
684.742294	-67.115045
684.898728	-67.173966
685.055234	-67.245949
685.211812	-67.331315
685.368461	-67.430854
685.525182	-67.544955
685.681975	-67.673602
685.838839	-67.817088
685.995775	-67.976080
686.152783	-68.150955
686.309863	-68.341218
686.467014	-68.546644
686.624238	-68.767176
686.781534	-69.002559
686.938902	-69.252169
687.096342	-69.514947
687.253854	-69.789663
687.411438	-70.075392
687.569095	-70.371448
687.726824	-70.677576
687.884626	-70.994151
688.042499	-71.321614
688.200446	-71.659343
688.358465	-72.005653
688.516556	-72.357968
688.674720	-72.712704
688.832957	-73.064429
688.991266	-73.405211
689.149649	-73.724768
689.308104	-74.011262
689.466632	-74.252849
689.625233	-74.438530
689.783906	-74.559049
689.942653	-74.607109
690.101473	-74.579804
690.260367	-74.480452
690.419333	-74.317370
690.578372	-74.101513
690.737485	-73.844439
690.896672	-73.557176
691.055931	-73.250529
691.215264	-72.934096
691.374671	-72.614670
691.534151	-72.296158
691.693704	-71.980912
691.853332	-71.670516
692.013033	-71.365259
692.172807	-71.063134
692.332656	-70.761871
692.492578	-70.461610
692.652575	-70.163489
692.812645	-69.868071
692.972789	-69.575375
693.133007	-69.286262
693.293300	-69.003559
693.453666	-68.729811
693.614107	-68.467131
693.774622	-68.217320
693.935211	-67.981549
694.095875	-67.761460
694.256613	-67.559913
694.417426	-67.379792
694.578313	-67.222179
694.739274	-67.086566
694.900311	-66.972273
695.061421	-66.878537
695.222607	-66.804113
695.383868	-66.747018
695.545203	-66.705284
695.706613	-66.676901
695.868098	-66.659122
696.029658	-66.648836
696.191293	-66.642827
696.353003	-66.638060
696.514789	-66.631868
696.676649	-66.622046
696.838585	-66.606610
697.000596	-66.583836
697.162682	-66.552927
697.324844	-66.514771
697.487081	-66.471084
697.649394	-66.423275
697.811782	-66.373079
697.974246	-66.322891
698.136786	-66.275041
698.299401	-66.231672
698.462092	-66.194815
698.624859	-66.166460
698.787702	-66.148251
698.950621	-66.141125
699.113616	-66.144258
699.276686	-66.155845
699.439833	-66.174362
699.603056	-66.198338
699.766355	-66.226349
699.929731	-66.255939
700.093183	-66.284758
700.256711	-66.311868
700.420315	-66.336707
700.583996	-66.357396
700.747754	-66.371308
700.911588	-66.376449
701.075499	-66.371981
701.239486	-66.357859
701.403550	-66.333863
701.567691	-66.300143
701.731909	-66.257940
701.896203	-66.209454
702.060575	-66.157597
702.225024	-66.105034
702.389549	-66.054102
702.554152	-66.007882
702.718832	-65.970342
702.883589	-65.945031
703.048424	-65.934032
703.213335	-65.939059
703.378324	-65.961879
703.543391	-66.003510
703.708535	-66.063563
703.873757	-66.141042
704.039056	-66.234547
704.204433	-66.343708
704.369887	-66.469203
704.535420	-66.610212
704.701030	-66.764722
704.866718	-66.930488
705.032484	-67.106716
705.198328	-67.292031
705.364250	-67.483181
705.530250	-67.676713
705.696328	-67.870972
705.862485	-68.066139
706.028720	-68.263773
706.195033	-68.464924
706.361424	-68.669986
706.527894	-68.881820
706.694442	-69.106402
706.861069	-69.350367
707.027775	-69.618395
707.194559	-69.915162
707.361422	-70.247732
707.528363	-70.624096
707.695384	-71.050551
707.862483	-71.530797
708.029661	-72.068080
708.196918	-72.669115
708.364254	-73.342135
708.531670	-74.091766
708.699164	-74.918479
708.866738	-75.820331
709.034391	-76.788269
709.202123	-77.792342
709.369935	-78.765160
709.537826	-79.593407
709.705796	-80.142048
709.873847	-80.321021
710.041976	-80.138308
710.210186	-79.691375
710.378475	-79.107697
710.546844	-78.485098
710.715292	-77.880649
710.883821	-77.316716
711.052429	-76.793502
711.221118	-76.301560
711.389887	-75.827261
711.558735	-75.355402
711.727664	-74.873626
711.896673	-74.376438
712.065763	-73.865394
712.234932	-73.344833
712.404183	-72.822880
712.573513	-72.310156
712.742924	-71.815179
712.912416	-71.343605
713.081988	-70.899312
713.251641	-70.484192
713.421375	-70.099542
713.591190	-69.746832
713.761085	-69.426586
713.931061	-69.137389
714.101119	-68.876883
714.271257	-68.642175
714.441476	-68.430058
714.611777	-68.236086
714.782159	-68.054718
714.952622	-67.879526
715.123166	-67.704560
715.293792	-67.524498
715.464499	-67.335148
715.635288	-67.134131
715.806158	-66.920383
715.977110	-66.694430
716.148143	-66.458339
716.319259	-66.215582
716.490456	-65.970931
716.661735	-65.729317
716.833096	-65.494620
717.004538	-65.270648
717.176063	-65.060055
717.347670	-64.863242
717.519359	-64.679074
717.691130	-64.506188
717.862984	-64.342843
718.034920	-64.186488
718.206938	-64.034029
718.379039	-63.883180
718.551222	-63.732099
718.723488	-63.579570
718.895836	-63.425100
719.068267	-63.267952
719.240781	-63.107573
719.413377	-62.944195
719.586057	-62.779199
719.758819	-62.614008
719.931664	-62.450049
720.104593	-62.288828
720.277604	-62.132210
720.450699	-61.981694
720.623876	-61.838569
720.797137	-61.703965
720.970482	-61.578557
721.143910	-61.463311
721.317421	-61.358881
721.491016	-61.265274
721.664694	-61.182557
721.838456	-61.110266
722.012302	-61.047696
722.186231	-60.993632
722.360244	-60.946563
722.534342	-60.905112
722.708523	-60.868518
722.882788	-60.836570
723.057137	-60.809418
723.231570	-60.788205
723.406088	-60.774091
723.580689	-60.768023
723.755375	-60.771227
723.930146	-60.785249
724.105000	-60.811725
724.279940	-60.851490
724.454963	-60.904908
724.630072	-60.972539
724.805265	-61.054828
724.980543	-61.151541
725.155905	-61.261804
725.331353	-61.384861
725.506885	-61.520310
725.682503	-61.668208
725.858205	-61.828480
726.033993	-62.001014
726.209865	-62.186314
726.385823	-62.384754
726.561866	-62.597095
726.737995	-62.824176
726.914209	-63.066694
727.090508	-63.325027
727.266893	-63.598250
727.443364	-63.885868
727.619920	-64.188237
727.796562	-64.506869
727.973290	-64.842823
728.150103	-65.196470
728.327003	-65.568163
728.503988	-65.959641
728.681060	-66.373133
728.858218	-66.811750
729.035461	-67.278137
729.212791	-67.774460
729.390208	-68.303390
729.567710	-68.868646
729.745299	-69.472986
