# 2022-03-16_11.39.53
# shape = sech2
# FWHM_ps = 0.2
# carrier_nm = 1542
# frep_MHz = 12126
# pow_mW = 4500
# GDD = 0.0
# propa_len = 0.15
# untap_len = 0.01
# taper_len = 0.13
# waist_len = 0.02
# uptap_len = 0.01
# untap_scale = 1.0
# waist_scale = 0.25
# workingDir = NL_20110305_12 (Spirou)
# axis = slow
# window_ps = 10.0
# steps = 200
# points = 13000
# 
# wavelength [nm]	 power spectral density [dB]
1000.248639	-47.444730
1000.582480	-47.390980
1000.916545	-47.339144
1001.250832	-47.286129
1001.585343	-47.231725
1001.920077	-47.175336
1002.255035	-47.117870
1002.590218	-47.062523
1002.925624	-47.011975
1003.261255	-46.965379
1003.597111	-46.918841
1003.933192	-46.868787
1004.269497	-46.814642
1004.606029	-46.758347
1004.942785	-46.702072
1005.279768	-46.647322
1005.616977	-46.595561
1005.954412	-46.547922
1006.292074	-46.503813
1006.629962	-46.460367
1006.968077	-46.413588
1007.306420	-46.359841
1007.644990	-46.296853
1007.983787	-46.224447
1008.322813	-46.145299
1008.662067	-46.064888
1009.001549	-45.989241
1009.341259	-45.921981
1009.681199	-45.863196
1010.021367	-45.810153
1010.361765	-45.758360
1010.702392	-45.703002
1011.043250	-45.641394
1011.384337	-45.574476
1011.725654	-45.505779
1012.067202	-45.439340
1012.408980	-45.378287
1012.750989	-45.323980
1013.093230	-45.275913
1013.435702	-45.231873
1013.778405	-45.188006
1014.121341	-45.140463
1014.464508	-45.088338
1014.807908	-45.034187
1015.151540	-44.981216
1015.495405	-44.931038
1015.839503	-44.883775
1016.183835	-44.838631
1016.528400	-44.793865
1016.873198	-44.746642
1017.218231	-44.694239
1017.563498	-44.636555
1017.908999	-44.577363
1018.254735	-44.521715
1018.600707	-44.471757
1018.946913	-44.425974
1019.293354	-44.381945
1019.640032	-44.338280
1019.986945	-44.293734
1020.334094	-44.246473
1020.681480	-44.195675
1021.029102	-44.143641
1021.376961	-44.094774
1021.725058	-44.051570
1022.073391	-44.012263
1022.421962	-43.972779
1022.770772	-43.930249
1023.119819	-43.883953
1023.469104	-43.833846
1023.818628	-43.780030
1024.168391	-43.724174
1024.518393	-43.669302
1024.868634	-43.617328
1025.219115	-43.567383
1025.569836	-43.516294
1025.920796	-43.461096
1026.271997	-43.401353
1026.623438	-43.338452
1026.975121	-43.273926
1027.327044	-43.209483
1027.679208	-43.146954
1028.031614	-43.087631
1028.384262	-43.031726
1028.737152	-42.978142
1029.090284	-42.925441
1029.443659	-42.873224
1029.797276	-42.822142
1030.151137	-42.773212
1030.505240	-42.727125
1030.859587	-42.684045
1031.214178	-42.643977
1031.569013	-42.606729
1031.924093	-42.571865
1032.279417	-42.538764
1032.634985	-42.506561
1032.990799	-42.474699
1033.346858	-42.443032
1033.703162	-42.411072
1034.059712	-42.378037
1034.416509	-42.343347
1034.773551	-42.307035
1035.130841	-42.269707
1035.488377	-42.231212
1035.846160	-42.190272
1036.204190	-42.145984
1036.562468	-42.098432
1036.920994	-42.048569
1037.279768	-41.997334
1037.638790	-41.945046
1037.998061	-41.892223
1038.357581	-41.839190
1038.717350	-41.785178
1039.077368	-41.729016
1039.437636	-41.670189
1039.798154	-41.609821
1040.158922	-41.550549
1040.519940	-41.494566
1040.881209	-41.442825
1041.242729	-41.395096
1041.604501	-41.349698
1041.966524	-41.304120
1042.328798	-41.256395
1042.691325	-41.206425
1043.054103	-41.156264
1043.417135	-41.108932
1043.780419	-41.066736
1044.143956	-41.029684
1044.507746	-40.995519
1044.871791	-40.961076
1045.236088	-40.923658
1045.600641	-40.882799
1045.965447	-40.840612
1046.330508	-40.799886
1046.695824	-40.762734
1047.061395	-40.729558
1047.427222	-40.698546
1047.793304	-40.666947
1048.159642	-40.632413
1048.526237	-40.594093
1048.893088	-40.553355
1049.260196	-40.512423
1049.627561	-40.472546
1049.995183	-40.433695
1050.363063	-40.394669
1050.731201	-40.354015
1051.099597	-40.311397
1051.468251	-40.267475
1051.837164	-40.223566
1052.206336	-40.181065
1052.575767	-40.140005
1052.945458	-40.099134
1053.315409	-40.056771
1053.685619	-40.011651
1054.056090	-39.964267
1054.426821	-39.916403
1054.797814	-39.869626
1055.169067	-39.824440
1055.540582	-39.779895
1055.912359	-39.734270
1056.284398	-39.686311
1056.656698	-39.635877
1057.029262	-39.583957
1057.402088	-39.532018
1057.775177	-39.481224
1058.148530	-39.431759
1058.522146	-39.383094
1058.896027	-39.334777
1059.270171	-39.286798
1059.644580	-39.239630
1060.019254	-39.193701
1060.394193	-39.148810
1060.769397	-39.104306
1061.144867	-39.059628
1061.520602	-39.014914
1061.896604	-38.971389
1062.272872	-38.930623
1062.649407	-38.893276
1063.026210	-38.858624
1063.403279	-38.824575
1063.780616	-38.788925
1064.158221	-38.750877
1064.536094	-38.711397
1064.914235	-38.672820
1065.292645	-38.637026
1065.671325	-38.603890
1066.050273	-38.571463
1066.429491	-38.537089
1066.808979	-38.499383
1067.188738	-38.459096
1067.568766	-38.418395
1067.949066	-38.379558
1068.329636	-38.342926
1068.710478	-38.306283
1069.091592	-38.266305
1069.472977	-38.220937
1069.854635	-38.171358
1070.236565	-38.121138
1070.618768	-38.073484
1071.001243	-38.029036
1071.383993	-37.985638
1071.767016	-37.940259
1072.150313	-37.891181
1072.533884	-37.838876
1072.917730	-37.785755
1073.301850	-37.734792
1073.686246	-37.687564
1074.070917	-37.643150
1074.455864	-37.598959
1074.841087	-37.553070
1075.226586	-37.505901
1075.612362	-37.459604
1075.998415	-37.416022
1076.384745	-37.375275
1076.771353	-37.335759
1077.158238	-37.295500
1077.545401	-37.253730
1077.932843	-37.211187
1078.320564	-37.169340
1078.708564	-37.129001
1079.096842	-37.089550
1079.485401	-37.049620
1079.874240	-37.008227
1080.263358	-36.965591
1080.652757	-36.922828
1081.042438	-36.880530
1081.432399	-36.837895
1081.822641	-36.793192
1082.213166	-36.745087
1082.603972	-36.694106
1082.995061	-36.642554
1083.386433	-36.592889
1083.778087	-36.545542
1084.170025	-36.498340
1084.562246	-36.448385
1084.954751	-36.394210
1085.347541	-36.337273
1085.740615	-36.281135
1086.133973	-36.228909
1086.527617	-36.181054
1086.921546	-36.134867
1087.315761	-36.087113
1087.710262	-36.036700
1088.105050	-35.985662
1088.500124	-35.937410
1088.895485	-35.893800
1089.291134	-35.853849
1089.687070	-35.814324
1090.083294	-35.772436
1090.479806	-35.728016
1090.876607	-35.683661
1091.273696	-35.642171
1091.671075	-35.603778
1092.068744	-35.566060
1092.466702	-35.525939
1092.864950	-35.482178
1093.263489	-35.436185
1093.662319	-35.390894
1094.061440	-35.347781
1094.460852	-35.304959
1094.860555	-35.258791
1095.260551	-35.207180
1095.660840	-35.151678
1096.061421	-35.096057
1096.462295	-35.043004
1096.863462	-34.991935
1097.264923	-34.939362
1097.666678	-34.882028
1098.068727	-34.819757
1098.471071	-34.756076
1098.873710	-34.695751
1099.276644	-34.640360
1099.679874	-34.587065
1100.083400	-34.531541
1100.487222	-34.472267
1100.891340	-34.411607
1101.295756	-34.353971
1101.700468	-34.302261
1102.105478	-34.254917
1102.510787	-34.207394
1102.916393	-34.156505
1103.322298	-34.103621
1103.728502	-34.053312
1104.135005	-34.009174
1104.541807	-33.969948
1104.948909	-33.929871
1105.356312	-33.883982
1105.764015	-33.832901
1106.172019	-33.782454
1106.580324	-33.738278
1106.988931	-33.700601
1107.397840	-33.663330
1107.807051	-33.618914
1108.216564	-33.565198
1108.626380	-33.507838
1109.036500	-33.455662
1109.446923	-33.412569
1109.857649	-33.373768
1110.268680	-33.329736
1110.680016	-33.274901
1111.091657	-33.212576
1111.503602	-33.152287
1111.915854	-33.101517
1112.328411	-33.058979
1112.741275	-33.015525
1113.154445	-32.962590
1113.567922	-32.900062
1113.981706	-32.836322
1114.395798	-32.780775
1114.810198	-32.735592
1115.224906	-32.694137
1115.639923	-32.646971
1116.055249	-32.590270
1116.470884	-32.528762
1116.886829	-32.471375
1117.303084	-32.423264
1117.719650	-32.381565
1118.136526	-32.338109
1118.553713	-32.286422
1118.971212	-32.227011
1119.389022	-32.166532
1119.807145	-32.111696
1120.225580	-32.063545
1120.644328	-32.016953
1121.063389	-31.965266
1121.482763	-31.906260
1121.902452	-31.843853
1122.322454	-31.784242
1122.742771	-31.730505
1123.163404	-31.680801
1123.584351	-31.630296
1124.005614	-31.575142
1124.427193	-31.515724
1124.849089	-31.456288
1125.271301	-31.401104
1125.693830	-31.351139
1126.116677	-31.303319
1126.539842	-31.252849
1126.963324	-31.197128
1127.387126	-31.138358
1127.811246	-31.081999
1128.235685	-31.031690
1128.660444	-30.985673
1129.085522	-30.938526
1129.510922	-30.886283
1129.936641	-30.829996
1130.362682	-30.775020
1130.789044	-30.725918
1131.215728	-30.681761
1131.642734	-30.637256
1132.070063	-30.588315
1132.497714	-30.535683
1132.925689	-30.483481
1133.353987	-30.434610
1133.782610	-30.388252
1134.211556	-30.341220
1134.640827	-30.290978
1135.070424	-30.237603
1135.500345	-30.183517
1135.930593	-30.130887
1136.361166	-30.079729
1136.792067	-30.028332
1137.223294	-29.974952
1137.654848	-29.919572
1138.086730	-29.864463
1138.518940	-29.812087
1138.951479	-29.762114
1139.384346	-29.711393
1139.817543	-29.657994
1140.251069	-29.604293
1140.684925	-29.553864
1141.119111	-29.506362
1141.553628	-29.457709
1141.988475	-29.405169
1142.423655	-29.351050
1142.859166	-29.299720
1143.295009	-29.251136
1143.731185	-29.200245
1144.167694	-29.144064
1144.604536	-29.085997
1145.041711	-29.031123
1145.479221	-28.978992
1145.917065	-28.924177
1146.355245	-28.864309
1146.793759	-28.804000
1147.232609	-28.748258
1147.671795	-28.695536
1148.111317	-28.640296
1148.551177	-28.581189
1148.991373	-28.523516
1149.431907	-28.471793
1149.872779	-28.422941
1150.313989	-28.370746
1150.755538	-28.315209
1151.197426	-28.262609
1151.639653	-28.216266
1152.082220	-28.171238
1152.525128	-28.121075
1152.968376	-28.067109
1153.411966	-28.016578
1153.855897	-27.972000
1154.300169	-27.926828
1154.744784	-27.874350
1155.189742	-27.817530
1155.635042	-27.764818
1156.080687	-27.717977
1156.526674	-27.669551
1156.973007	-27.613231
1157.419683	-27.553214
1157.866705	-27.498662
1158.314072	-27.450942
1158.761786	-27.402174
1159.209845	-27.346644
1159.658251	-27.288992
1160.107004	-27.238024
1160.556104	-27.194494
1161.005553	-27.150394
1161.455349	-27.100547
1161.905494	-27.049445
1162.355989	-27.004516
1162.806832	-26.965590
1163.258026	-26.925084
1163.709570	-26.878566
1164.161464	-26.830249
1164.613710	-26.786138
1165.066307	-26.745340
1165.519256	-26.701366
1165.972558	-26.651127
1166.426212	-26.598610
1166.880219	-26.548465
1167.334580	-26.499661
1167.789295	-26.447596
1168.244364	-26.390657
1168.699788	-26.332215
1169.155567	-26.275824
1169.611702	-26.220760
1170.068193	-26.164033
1170.525041	-26.105139
1170.982245	-26.046582
1171.439807	-25.990522
1171.897726	-25.936608
1172.356004	-25.883101
1172.814640	-25.829444
1173.273635	-25.776983
1173.732989	-25.727040
1174.192703	-25.679266
1174.652778	-25.632378
1175.113213	-25.585680
1175.574009	-25.539459
1176.035167	-25.494377
1176.496687	-25.450261
1176.958569	-25.406055
1177.420814	-25.360915
1177.883422	-25.314771
1178.346394	-25.268074
1178.809730	-25.220836
1179.273430	-25.172401
1179.737496	-25.122317
1180.201927	-25.070547
1180.666723	-25.017481
1181.131886	-24.963613
1181.597416	-24.908806
1182.063312	-24.852886
1182.529576	-24.796184
1182.996209	-24.739051
1183.463209	-24.682014
1183.930579	-24.625651
1184.398317	-24.569864
1184.866426	-24.514615
1185.334904	-24.460521
1185.803754	-24.407985
1186.272974	-24.357287
1186.742566	-24.308505
1187.212529	-24.261301
1187.682865	-24.215817
1188.153574	-24.172419
1188.624656	-24.131089
1189.096112	-24.091550
1189.567942	-24.053365
1190.040147	-24.016300
1190.512726	-23.980369
1190.985681	-23.945467
1191.459012	-23.911205
1191.932720	-23.876926
1192.406804	-23.842280
1192.881265	-23.807256
1193.356104	-23.771623
1193.831322	-23.735100
1194.306918	-23.697250
1194.782893	-23.657735
1195.259248	-23.616718
1195.735982	-23.574191
1196.213097	-23.530059
1196.690593	-23.484271
1197.168471	-23.436662
1197.646730	-23.387508
1198.125371	-23.337207
1198.604395	-23.285880
1199.083803	-23.233678
1199.563594	-23.180740
1200.043769	-23.127365
1200.524329	-23.074017
1201.005273	-23.020959
1201.486604	-22.968339
1201.968320	-22.916370
1202.450422	-22.865234
1202.932912	-22.815215
1203.415789	-22.766620
1203.899054	-22.719419
1204.382707	-22.673587
1204.866748	-22.629217
1205.351179	-22.586308
1205.836000	-22.544991
1206.321211	-22.505162
1206.806812	-22.466490
1207.292805	-22.428881
1207.779189	-22.392231
1208.265965	-22.356474
1208.753134	-22.321402
1209.240696	-22.286547
1209.728651	-22.251705
1210.217000	-22.216773
1210.705744	-22.181633
1211.194883	-22.146045
1211.684417	-22.109599
1212.174347	-22.072132
1212.664673	-22.033620
1213.155396	-21.994022
1213.646516	-21.953211
1214.138034	-21.910933
1214.629951	-21.867159
1215.122266	-21.822048
1215.614980	-21.775688
1216.108095	-21.728054
1216.601609	-21.679092
1217.095524	-21.628980
1217.589841	-21.578007
1218.084559	-21.526328
1218.579679	-21.473971
1219.075202	-21.421030
1219.571128	-21.367787
1220.067458	-21.314569
1220.564191	-21.261537
1221.061330	-21.208728
1221.558874	-21.156275
1222.056823	-21.104443
1222.555178	-21.053466
1223.053940	-21.003438
1223.553109	-20.954383
1224.052686	-20.906368
1224.552671	-20.859547
1225.053065	-20.814010
1225.553867	-20.769804
1226.055079	-20.726902
1226.556702	-20.685227
1227.058735	-20.644817
1227.561179	-20.605651
1228.064035	-20.567700
1228.567303	-20.530895
1229.070983	-20.495070
1229.575077	-20.460152
1230.079585	-20.426107
1230.584506	-20.392842
1231.089842	-20.360215
1231.595594	-20.328008
1232.101761	-20.296116
1232.608345	-20.264575
1233.115345	-20.233227
1233.622762	-20.201856
1234.130597	-20.170251
1234.638851	-20.138390
1235.147523	-20.106347
1235.656615	-20.073934
1236.166126	-20.040928
1236.676058	-20.007233
1237.186411	-19.972975
1237.697185	-19.938232
1238.208381	-19.902741
1238.719999	-19.866391
1239.232040	-19.829277
1239.744505	-19.791582
1240.257394	-19.753319
1240.770708	-19.714256
1241.284446	-19.674472
1241.798610	-19.634197
1242.313201	-19.593600
1242.828218	-19.552572
1243.343662	-19.511019
1243.859534	-19.469167
1244.375834	-19.427265
1244.892563	-19.385360
1245.409721	-19.343311
1245.927309	-19.301255
1246.445327	-19.259376
1246.963777	-19.217822
1247.482657	-19.176528
1248.001970	-19.135458
1248.521716	-19.094791
1249.041894	-19.054601
1249.562506	-19.014984
1250.083553	-18.975817
1250.605034	-18.937166
1251.126950	-18.899108
1251.649302	-18.861681
1252.172091	-18.824897
1252.695316	-18.788685
1253.218979	-18.753116
1253.743079	-18.718156
1254.267619	-18.683852
1254.792597	-18.650145
1255.318015	-18.616998
1255.843874	-18.584409
1256.370173	-18.552341
1256.896913	-18.520828
1257.424095	-18.489745
1257.951720	-18.459050
1258.479787	-18.428718
1259.008298	-18.398791
1259.537254	-18.369194
1260.066654	-18.339800
1260.596499	-18.310580
1261.126790	-18.281544
1261.657527	-18.252693
1262.188711	-18.223913
1262.720342	-18.195157
1263.252422	-18.166423
1263.784950	-18.137688
1264.317928	-18.108951
1264.851355	-18.080153
1265.385232	-18.051291
1265.919560	-18.022329
1266.454340	-17.993304
1266.989572	-17.964205
1267.525256	-17.934978
1268.061394	-17.905585
1268.597985	-17.876050
1269.135031	-17.846451
1269.672531	-17.816721
1270.210487	-17.786777
1270.748899	-17.756623
1271.287768	-17.726394
1271.827094	-17.696072
1272.366877	-17.665538
1272.907119	-17.634766
1273.447820	-17.603903
1273.988981	-17.573002
1274.530601	-17.541925
1275.072683	-17.510623
1275.615226	-17.479224
1276.158230	-17.447841
1276.701697	-17.416351
1277.245627	-17.384672
1277.790021	-17.352925
1278.334879	-17.321221
1278.880202	-17.289461
1279.425991	-17.257555
1279.972245	-17.225598
1280.518966	-17.193661
1281.066155	-17.161694
1281.613811	-17.129622
1282.161936	-17.097500
1282.710529	-17.065331
1283.259593	-17.033117
1283.809126	-17.000837
1284.359131	-16.968523
1284.909607	-16.936118
1285.460555	-16.903630
1286.011976	-16.871114
1286.563870	-16.838588
1287.116237	-16.805946
1287.669080	-16.773201
1288.222397	-16.740454
1288.776191	-16.707702
1289.330460	-16.674827
1289.885207	-16.641851
1290.440431	-16.608881
1290.996133	-16.575881
1291.552314	-16.542771
1292.108975	-16.509587
1292.666115	-16.476404
1293.223737	-16.443166
1293.781839	-16.409835
1294.340424	-16.376448
1294.899491	-16.343059
1295.459041	-16.309591
1296.019075	-16.276072
1296.579593	-16.242550
1297.140597	-16.209044
1297.702086	-16.175438
1298.264061	-16.141834
1298.826524	-16.108294
1299.389474	-16.074788
1299.952912	-16.041208
1300.516839	-16.007697
1301.081255	-15.974322
1301.646162	-15.940999
1302.211559	-15.907655
1302.777448	-15.874451
1303.343829	-15.841443
1303.910702	-15.808523
1304.478069	-15.775653
1305.045930	-15.742979
1305.614285	-15.710518
1306.183136	-15.678181
1306.752483	-15.646008
1307.322326	-15.614082
1307.892666	-15.582363
1308.463504	-15.550834
1309.034841	-15.519590
1309.606677	-15.488630
1310.179012	-15.457893
1310.751849	-15.427447
1311.325186	-15.397365
1311.899025	-15.367560
1312.473366	-15.337995
1313.048211	-15.308809
1313.623559	-15.280041
1314.199412	-15.251540
1314.775770	-15.223336
1315.352634	-15.195563
1315.930004	-15.168198
1316.507881	-15.141106
1317.086266	-15.114382
1317.665159	-15.088121
1318.244562	-15.062237
1318.824474	-15.036666
1319.404897	-15.011511
1319.985831	-14.986812
1320.567276	-14.962460
1321.149234	-14.938469
1321.731706	-14.914913
1322.314691	-14.891757
1322.898190	-14.868919
1323.482205	-14.846471
1324.066736	-14.824451
1324.651783	-14.802744
1325.237347	-14.781336
1325.823430	-14.760325
1326.410031	-14.739674
1326.997151	-14.719277
1327.584791	-14.699205
1328.172952	-14.679525
1328.761634	-14.660120
1329.350839	-14.640967
1329.940566	-14.622153
1330.530817	-14.603649
1331.121592	-14.585364
1331.712891	-14.567349
1332.304716	-14.549628
1332.897068	-14.532097
1333.489946	-14.514747
1334.083352	-14.497646
1334.677287	-14.480726
1335.271750	-14.463893
1335.866744	-14.447209
1336.462268	-14.430719
1337.058323	-14.414309
1337.654910	-14.397940
1338.252029	-14.381734
1338.849682	-14.365649
1339.447869	-14.349568
1340.046591	-14.333563
1340.645848	-14.317699
1341.245641	-14.301873
1341.845972	-14.286065
1342.446840	-14.270361
1343.048246	-14.254697
1343.650191	-14.239030
1344.252677	-14.223415
1344.855702	-14.207835
1345.459269	-14.192219
1346.063379	-14.176597
1346.668030	-14.160995
1347.273226	-14.145341
1347.878965	-14.129634
1348.485250	-14.113923
1349.092080	-14.098169
1349.699456	-14.082331
1350.307380	-14.066463
1350.915851	-14.050571
1351.524871	-14.034608
1352.134441	-14.018598
1352.744560	-14.002583
1353.355231	-13.986535
1353.966453	-13.970451
1354.578227	-13.954368
1355.190555	-13.938282
1355.803436	-13.922167
1356.416872	-13.906055
1357.030863	-13.889957
1357.645411	-13.873842
1358.260515	-13.857715
1358.876177	-13.841589
1359.492397	-13.825442
1360.109176	-13.809271
1360.726516	-13.793080
1361.344416	-13.776858
1361.962877	-13.760623
1362.581901	-13.744380
1363.201487	-13.728116
1363.821637	-13.711868
1364.442352	-13.695652
1365.063632	-13.679455
1365.685478	-13.663328
1366.307891	-13.647295
1366.930871	-13.631324
1367.554420	-13.615474
1368.178538	-13.599780
1368.803226	-13.584192
1369.428485	-13.568744
1370.054315	-13.553505
1370.680717	-13.538412
1371.307693	-13.523435
1371.935242	-13.508658
1372.563366	-13.494048
1373.192065	-13.479525
1373.821341	-13.465149
1374.451193	-13.450933
1375.081623	-13.436784
1375.712632	-13.422742
1376.344221	-13.408846
1376.976389	-13.395023
1377.609139	-13.381299
1378.242470	-13.367741
1378.876384	-13.354315
1379.510881	-13.341018
1380.145963	-13.327917
1380.781629	-13.315010
1381.417881	-13.302275
1382.054720	-13.289767
1382.692147	-13.277510
1383.330161	-13.265461
1383.968765	-13.253648
1384.607959	-13.242091
1385.247743	-13.230752
1385.888119	-13.219633
1386.529087	-13.208728
1387.170648	-13.197997
1387.812804	-13.187434
1388.455554	-13.177014
1389.098899	-13.166693
1389.742842	-13.156468
1390.387381	-13.146309
1391.032519	-13.136180
1391.678256	-13.126093
1392.324592	-13.116032
1392.971529	-13.105979
1393.619068	-13.095965
1394.267208	-13.086003
1394.915952	-13.076080
1395.565300	-13.066236
1396.215253	-13.056514
