# 2022-03-22_09.09.32
# shape = sech2
# FWHM_ps = 0.11
# carrier_nm = 1542
# frep_MHz = 12126
# pow_mW = 8000
# GDD = 0.0
# propa_len = 0.10488888888888889
# untap_len = 0.01
# taper_len = 0.04488888888888889
# waist_len = 0.02
# uptap_len = 0.02
# untap_scale = 1.0
# waist_scale = 0.368421052631579
# workingDir = NL_20110305_12 (Spirou)
# axis = slow
# window_ps = 10.0
# steps = 200
# points = 21700
# 
# wavelength [nm]	 power spectral density [dB]
600.043425	-142.723172
600.163550	-143.411687
600.283723	-144.103663
600.403943	-144.767747
600.524212	-145.370815
600.644529	-145.876942
600.764895	-146.248351
600.885308	-146.447536
601.005770	-146.442691
601.126280	-146.217499
601.246839	-145.781227
601.367446	-145.170980
601.488101	-144.442530
601.608804	-143.655466
601.729557	-142.861358
601.850357	-142.098616
601.971206	-141.392615
602.092104	-140.758214
602.213050	-140.202763
602.334045	-139.728734
602.455089	-139.335811
602.576181	-139.022441
602.697322	-138.786991
602.818511	-138.628553
602.939749	-138.547471
603.061036	-138.545635
603.182372	-138.626574
603.303757	-138.795444
603.425191	-139.058939
603.546673	-139.425217
603.668204	-139.903814
603.789785	-140.505534
603.911414	-141.242196
604.033092	-142.126086
604.154820	-143.168740
604.276596	-144.378407
604.398422	-145.754518
604.520297	-147.275601
604.642220	-148.874245
604.764193	-150.394389
604.886216	-151.557945
605.008287	-152.047692
605.130408	-151.748174
605.252578	-150.835559
605.374798	-149.575017
605.497066	-148.161420
605.619385	-146.712416
605.741752	-145.300518
605.864169	-143.972401
605.986636	-142.757340
606.109152	-141.671991
606.231718	-140.724098
606.354333	-139.915470
606.476998	-139.244205
606.599712	-138.706268
606.722476	-138.296575
606.845290	-138.009745
606.968154	-137.840611
607.091067	-137.784552
607.214030	-137.837658
607.337043	-137.996675
607.460106	-138.258681
607.583219	-138.620384
607.706381	-139.076809
607.829594	-139.619080
607.952856	-140.230930
608.076169	-140.883858
608.199531	-141.531903
608.322944	-142.109698
608.446407	-142.540935
608.569920	-142.762749
608.693483	-142.756693
608.817096	-142.561133
608.940759	-142.252686
609.064473	-141.915012
609.188237	-141.618046
609.312051	-141.412353
609.435916	-141.331420
609.559831	-141.394751
609.683796	-141.607571
609.807812	-141.953894
609.931878	-142.379332
610.055995	-142.763904
610.180162	-142.909119
610.304380	-142.605838
610.428648	-141.792323
610.552967	-140.614074
610.677337	-139.291044
610.801757	-137.988264
610.926228	-136.793543
611.050750	-135.743376
611.175323	-134.847986
611.299946	-134.105886
611.424620	-133.511067
611.549345	-133.056286
611.674121	-132.734475
611.798948	-132.539244
611.923826	-132.464916
612.048755	-132.506219
612.173734	-132.657672
612.298765	-132.912551
612.423847	-133.261334
612.548980	-133.689524
612.674165	-134.174976
612.799400	-134.685396
612.924687	-135.177804
613.050025	-135.602856
613.175414	-135.916192
613.300854	-136.094023
613.426346	-136.143712
613.551889	-136.101035
613.677484	-136.016316
613.803130	-135.939432
613.928827	-135.910925
614.054576	-135.959677
614.180377	-136.104263
614.306229	-136.355305
614.432132	-136.717302
614.558087	-137.189148
614.684094	-137.762606
614.810153	-138.417714
614.936263	-139.113871
615.062425	-139.776994
615.188639	-140.290749
615.314904	-140.514529
615.441222	-140.347764
615.567591	-139.799749
615.694012	-138.982390
615.820486	-138.035255
615.947011	-137.067336
616.073588	-136.144810
616.200217	-135.301665
616.326898	-134.552637
616.453632	-133.902145
616.580417	-133.349385
616.707255	-132.890940
616.834144	-132.521955
616.961086	-132.236505
617.088081	-132.027453
617.215127	-131.885947
617.342226	-131.800623
617.469378	-131.756601
617.596581	-131.734480
617.723837	-131.709827
617.851146	-131.653961
617.978507	-131.537003
618.105920	-131.333491
618.233386	-131.029178
618.360905	-130.625870
618.488476	-130.141422
618.616100	-129.604848
618.743777	-129.049356
618.871506	-128.506536
618.999288	-128.003144
619.127123	-127.560253
619.255011	-127.193775
619.382951	-126.915525
619.510945	-126.734310
619.638991	-126.656847
619.767090	-126.688461
619.895243	-126.833559
620.023448	-127.095890
620.151706	-127.478550
620.280017	-127.983628
620.408382	-128.611234
620.536799	-129.357389
620.665270	-130.209845
620.793794	-131.140469
620.922371	-132.093317
621.051002	-132.971919
621.179686	-133.641770
621.308423	-133.974616
621.437213	-133.926786
621.566057	-133.573141
621.694954	-133.052109
621.823905	-132.490836
621.952909	-131.973516
622.081967	-131.544662
622.211079	-131.221281
622.340244	-131.001984
622.469462	-130.871428
622.598735	-130.801758
622.728061	-130.753596
622.857441	-130.679598
622.986874	-130.533144
623.116361	-130.281506
623.245903	-129.917386
623.375498	-129.460986
623.505147	-128.951120
623.634850	-128.432055
623.764606	-127.943623
623.894417	-127.517174
624.024282	-127.175866
624.154201	-126.936913
624.284174	-126.814258
624.414202	-126.821037
624.544283	-126.971762
624.674419	-127.284469
624.804609	-127.783233
624.934853	-128.501727
625.065151	-129.488970
625.195504	-130.819378
625.325911	-132.610387
625.456373	-135.045854
625.586889	-138.307847
625.717460	-141.358067
625.848085	-139.882005
625.978764	-136.187763
626.109498	-133.183820
626.240287	-130.936717
626.371131	-129.237544
626.502029	-127.942388
626.632982	-126.962441
626.763989	-126.242145
626.895052	-125.746093
627.026169	-125.451824
627.157341	-125.345880
627.288568	-125.421683
627.419850	-125.678445
627.551187	-126.120635
627.682579	-126.757520
627.814026	-127.601848
627.945528	-128.665289
628.077085	-129.943871
628.208697	-131.376116
628.340364	-132.745782
628.472087	-133.582415
628.603865	-133.422990
628.735698	-132.405980
628.867586	-131.071408
628.999530	-129.792172
629.131529	-128.710237
629.263584	-127.857587
629.395694	-127.229127
629.527859	-126.810603
629.660080	-126.587621
629.792357	-126.547819
629.924689	-126.680396
630.057077	-126.974000
630.189520	-127.412649
630.322019	-127.968468
630.454574	-128.589992
630.587184	-129.187712
630.719851	-129.629307
630.852573	-129.771982
630.985351	-129.540133
631.118185	-128.980809
631.251075	-128.225802
631.384021	-127.410302
631.517023	-126.629108
631.650081	-125.935731
631.783195	-125.356133
631.916365	-124.901105
632.049592	-124.574017
632.182874	-124.374939
632.316213	-124.302421
632.449608	-124.353716
632.583059	-124.523701
632.716567	-124.802285
632.850131	-125.169846
632.983751	-125.590380
633.117428	-126.003771
633.251161	-126.323313
633.384951	-126.450742
633.518797	-126.315535
633.652700	-125.915726
633.786660	-125.319259
633.920676	-124.624325
634.054749	-123.919016
634.188879	-123.264923
634.323065	-122.698956
634.457308	-122.240949
634.591608	-121.900651
634.725965	-121.682552
634.860379	-121.588938
634.994850	-121.621812
635.129377	-121.784240
635.263962	-122.081495
635.398604	-122.522309
635.533303	-123.120469
635.668058	-123.897088
635.802872	-124.883968
635.937742	-126.128704
636.072669	-127.701997
636.207654	-129.703463
636.342696	-132.229644
636.477796	-135.050231
636.612953	-136.321686
636.748167	-134.358903
636.883439	-131.531617
637.018768	-129.147639
637.154155	-127.282251
637.289599	-125.829285
637.425101	-124.695623
637.560660	-123.814693
637.696277	-123.139235
637.831952	-122.634673
637.967685	-122.274782
638.103475	-122.039008
638.239324	-121.910810
638.375230	-121.876604
638.511194	-121.925070
638.647215	-122.046668
638.783295	-122.233243
638.919433	-122.477657
639.055629	-122.773351
639.191883	-123.113801
639.328195	-123.491835
639.464565	-123.898861
639.600994	-124.324151
639.737481	-124.754462
639.874025	-125.174453
640.010629	-125.568368
640.147290	-125.923106
640.284010	-126.231955
640.420789	-126.497323
640.557625	-126.730785
640.694521	-126.950010
640.831474	-127.173762
640.968487	-127.416879
641.105558	-127.686744
641.242687	-127.981988
641.379876	-128.293717
641.517123	-128.609193
641.654429	-128.917232
641.791793	-129.213458
641.929216	-129.502809
642.066699	-129.797423
642.204240	-130.109835
642.341840	-130.443006
642.479499	-130.779248
642.617217	-131.071448
642.754994	-131.244351
642.892830	-131.216965
643.030726	-130.944658
643.168680	-130.449831
643.306694	-129.809417
643.444767	-129.113805
643.582899	-128.435185
643.721091	-127.818641
643.859342	-127.286874
643.997652	-126.848243
644.136022	-126.503673
644.274451	-126.251639
644.412940	-126.091592
644.551488	-126.026263
644.690096	-126.063223
644.828763	-126.216020
644.967490	-126.505294
645.106277	-126.960452
645.245124	-127.622827
645.384030	-128.552104
645.522997	-129.839906
645.662023	-131.640824
645.801109	-134.253637
645.940255	-138.381678
646.079460	-145.827106
646.218726	-144.095052
646.358052	-137.267019
646.497438	-133.397476
646.636884	-130.885493
646.776391	-129.148216
646.915957	-127.932032
647.055584	-127.104807
647.195271	-126.588195
647.335019	-126.330795
647.474826	-126.296080
647.614695	-126.456881
647.754623	-126.793490
647.894612	-127.294255
648.034662	-127.958088
648.174772	-128.798286
648.314943	-129.846982
648.455174	-131.159286
648.595466	-132.813371
648.735819	-134.883326
648.876233	-137.254249
649.016707	-138.888056
649.157242	-137.992030
649.297838	-135.531613
649.438495	-133.140096
649.579213	-131.197176
649.719992	-129.672240
649.860832	-128.484288
650.001733	-127.563749
650.142695	-126.857182
650.283718	-126.324013
650.424803	-125.933055
650.565949	-125.659351
650.707156	-125.480922
650.848424	-125.375297
650.989754	-125.316335
651.131145	-125.272661
651.272597	-125.209662
651.414111	-125.096433
651.555687	-124.916281
651.697324	-124.675428
651.839022	-124.404001
651.980782	-124.148716
652.122604	-123.962639
652.264488	-123.897948
652.406433	-124.004001
652.548441	-124.330090
652.690510	-124.931769
652.832640	-125.880544
652.974833	-127.276626
653.117088	-129.252225
653.259405	-131.841398
653.401784	-133.949600
653.544224	-132.567508
653.686727	-129.201473
653.829293	-126.194925
653.971920	-123.813862
654.114609	-121.934146
654.257361	-120.441165
654.400175	-119.258216
654.543052	-118.336103
654.685991	-117.643618
654.828992	-117.161491
654.972056	-116.878729
655.115183	-116.790395
655.258372	-116.896278
655.401623	-117.200044
655.544937	-117.708456
655.688314	-118.429861
655.831754	-119.369939
655.975256	-120.519540
656.118822	-121.822220
656.262450	-123.102314
656.406141	-123.983371
656.549894	-124.032649
656.693711	-123.230974
656.837591	-121.993360
656.981534	-120.698791
657.125540	-119.525136
657.269610	-118.527234
657.413742	-117.711219
657.557938	-117.068509
657.702196	-116.588350
657.846519	-116.261806
657.990904	-116.082666
658.135353	-116.047340
658.279866	-116.154538
658.424441	-116.405065
658.569081	-116.801876
658.713784	-117.350452
658.858550	-118.059548
659.003381	-118.942237
659.148274	-120.017014
659.293232	-121.307820
659.438253	-122.838717
659.583339	-124.607430
659.728488	-126.486608
659.873701	-127.972341
660.018978	-128.154824
660.164318	-126.883866
660.309723	-125.037317
660.455192	-123.239350
660.600725	-121.675555
660.746323	-120.365431
660.891984	-119.289664
661.037710	-118.426219
661.183500	-117.758422
661.329354	-117.275874
661.475272	-116.973955
661.621255	-116.853501
661.767303	-116.921069
661.913415	-117.190104
662.059591	-117.683460
662.205833	-118.438298
662.352138	-119.515643
662.498509	-121.020493
662.644944	-123.149476
662.791443	-126.325367
662.938008	-131.650697
663.084638	-138.163895
663.231332	-130.491456
663.378091	-125.316220
663.524915	-122.080246
663.671804	-119.820999
663.818759	-118.160436
663.965778	-116.917590
664.112863	-115.992391
664.260012	-115.323374
664.407227	-114.869375
664.554507	-114.600416
664.701853	-114.492512
664.849264	-114.524218
664.996740	-114.673977
665.144282	-114.917876
665.291889	-115.227890
665.439561	-115.571151
665.587300	-115.911188
665.735103	-116.212084
665.882973	-116.445353
666.030908	-116.597207
666.178909	-116.672414
666.326976	-116.692420
666.475109	-116.689060
666.623307	-116.697515
666.771571	-116.751432
666.919902	-116.880916
667.068298	-117.112714
667.216761	-117.471654
667.365289	-117.982838
667.513884	-118.674541
667.662545	-119.582251
667.811272	-120.754674
667.960065	-122.263068
668.108925	-124.214787
668.257851	-126.760169
668.406843	-129.965583
668.555902	-132.682810
668.705027	-131.660647
668.854219	-128.735289
669.003478	-126.324125
669.152803	-124.650239
669.302195	-123.598730
669.451653	-123.090847
669.601179	-123.110425
669.750771	-123.709484
669.900430	-125.041909
670.050156	-127.478158
670.199949	-131.993886
670.349808	-138.346994
670.499735	-131.010969
670.649729	-125.357397
670.799790	-121.775879
670.949918	-119.256271
671.100114	-117.396076
671.250377	-116.001531
671.400707	-114.964878
671.551104	-114.220277
671.701569	-113.725347
671.852101	-113.452598
672.002700	-113.385246
672.153368	-113.515119
672.304102	-113.841653
672.454905	-114.371419
672.605775	-115.117800
672.756713	-116.100081
672.907718	-117.339868
673.058791	-118.848100
673.209933	-120.582192
673.361142	-122.327107
673.512419	-123.521716
673.663764	-123.536856
673.815177	-122.543216
673.966658	-121.223918
674.118207	-119.984389
674.269825	-118.935495
674.421510	-118.070003
674.573264	-117.349198
674.725086	-116.733702
674.876977	-116.194158
675.028936	-115.714272
675.180963	-115.289977
675.333059	-114.926561
675.485224	-114.635371
675.637457	-114.431211
675.789758	-114.330854
675.942129	-114.352532
676.094568	-114.516166
676.247075	-114.844189
676.399652	-115.363103
676.552298	-116.106247
676.705012	-117.118788
676.857795	-118.467048
677.010648	-120.256716
677.163569	-122.669088
677.316560	-126.015891
677.469619	-130.427926
677.622748	-131.641074
677.775946	-127.482313
677.929214	-123.920381
678.082551	-121.383090
678.235957	-119.515704
678.389432	-118.096407
678.542977	-116.997950
678.696592	-116.144554
678.850276	-115.490002
679.004030	-115.006345
679.157853	-114.677367
679.311746	-114.494048
679.465709	-114.450715
679.619742	-114.541121
679.773844	-114.754002
679.928017	-115.067887
680.082259	-115.445939
680.236571	-115.833796
680.390954	-116.166361
680.545406	-116.388387
680.699929	-116.482120
680.854522	-116.481280
681.009185	-116.458591
681.163918	-116.499951
681.318722	-116.686627
681.473596	-117.093340
681.628540	-117.799518
681.783555	-118.912987
681.938641	-120.618451
682.093797	-123.306669
682.249023	-128.080894
682.404321	-139.467956
682.559689	-129.617770
682.715128	-122.945648
682.870637	-119.091597
683.026218	-116.446800
683.181869	-114.510801
683.337591	-113.065903
683.493385	-111.998291
683.649249	-111.241128
683.805185	-110.752292
683.961191	-110.504749
684.117269	-110.482586
684.273418	-110.680148
684.429639	-111.103486
684.585930	-111.774212
684.742294	-112.736994
684.898728	-114.074391
685.055234	-115.940100
685.211812	-118.647979
685.368461	-122.975842
685.525182	-131.214163
685.681975	-128.259952
685.838839	-121.354841
685.995775	-117.549416
686.152783	-115.097237
686.309863	-113.423141
686.467014	-112.283563
686.624238	-111.557206
686.781534	-111.179458
686.938902	-111.117839
687.096342	-111.362576
687.253854	-111.924263
687.411438	-112.835941
687.569095	-114.158053
687.726824	-115.979179
687.884626	-118.360855
688.042499	-120.913494
688.200446	-121.604798
688.358465	-119.442490
688.516556	-116.777181
688.674720	-114.614527
688.832957	-112.991675
688.991266	-111.811296
689.149649	-110.990045
689.308104	-110.469051
689.466632	-110.207662
689.625233	-110.177355
689.783906	-110.357032
689.942653	-110.728751
690.101473	-111.272361
690.260367	-111.956681
690.419333	-112.723909
690.578372	-113.465925
690.737485	-114.006850
690.896672	-114.141582
691.055931	-113.764024
691.215264	-112.962165
691.374671	-111.939161
691.534151	-110.878398
691.693704	-109.893924
691.853332	-109.044296
692.013033	-108.356502
692.172807	-107.841982
692.332656	-107.504980
692.492578	-107.346228
692.652575	-107.363856
692.812645	-107.552103
692.972789	-107.897388
693.133007	-108.370563
693.293300	-108.914701
693.453666	-109.432689
693.614107	-109.792253
693.774622	-109.875021
693.935211	-109.655747
694.095875	-109.228819
694.256613	-108.747245
694.417426	-108.350491
694.578313	-108.138706
694.739274	-108.180820
694.900311	-108.531528
695.061421	-109.247435
695.222607	-110.402379
695.383868	-112.102283
695.545203	-114.475101
695.706613	-117.404696
695.868098	-119.027099
696.029658	-116.982209
696.191293	-113.998554
696.353003	-111.621480
696.514789	-109.896991
696.676649	-108.701049
696.838585	-107.944410
697.000596	-107.579149
697.162682	-107.589782
697.324844	-107.989407
697.487081	-108.823479
697.649394	-110.185234
697.811782	-112.255018
697.974246	-115.392887
698.136786	-120.172664
698.299401	-122.995424
698.462092	-118.056182
698.624859	-114.049304
698.787702	-111.420464
698.950621	-109.628475
699.113616	-108.384937
699.276686	-107.532676
699.439833	-106.979661
699.603056	-106.671387
699.766355	-106.579344
699.929731	-106.696792
700.093183	-107.038720
700.256711	-107.645727
700.420315	-108.594427
700.583996	-110.022852
700.747754	-112.197883
700.911588	-115.727443
701.075499	-122.247150
701.239486	-123.057049
701.403550	-115.349943
701.567691	-110.908910
701.731909	-107.979114
701.896203	-105.885233
702.060575	-104.340914
702.225024	-103.199166
702.389549	-102.374368
702.554152	-101.812958
702.718832	-101.481174
702.883589	-101.359728
703.048424	-101.441477
703.213335	-101.730328
703.378324	-102.240638
703.543391	-102.996958
703.708535	-104.034304
703.873757	-105.398968
704.039056	-107.148363
704.204433	-109.340860
704.369887	-111.971334
704.535420	-114.680791
704.701030	-116.193581
704.866718	-115.615035
705.032484	-114.198465
705.198328	-112.956514
705.364250	-112.100384
705.530250	-111.618171
705.696328	-111.489476
705.862485	-111.728383
706.028720	-112.381373
706.195033	-113.498021
706.361424	-115.011603
706.527894	-116.318471
706.694442	-116.005153
706.861069	-113.978283
707.027775	-111.662841
707.194559	-109.740247
707.361422	-108.304686
707.528363	-107.310375
707.695384	-106.697773
707.862483	-106.417706
708.029661	-106.434495
708.196918	-106.725739
708.364254	-107.281271
708.531670	-108.099488
708.699164	-109.176037
708.866738	-110.473948
709.034391	-111.857988
709.202123	-113.011350
709.369935	-113.528762
709.537826	-113.344472
709.705796	-112.849835
709.873847	-112.464388
710.041976	-112.418021
710.210186	-112.800950
710.378475	-113.614540
710.546844	-114.725228
710.715292	-115.686060
710.883821	-115.717573
711.052429	-114.573432
711.221118	-112.916692
711.389887	-111.338546
711.558735	-110.053947
711.727664	-109.103478
711.896673	-108.480191
712.065763	-108.169193
712.234932	-108.152523
712.404183	-108.398663
712.573513	-108.839360
712.742924	-109.336266
712.912416	-109.668361
713.081988	-109.618243
713.251641	-109.148606
713.421375	-108.438697
713.591190	-107.722262
713.761085	-107.165269
713.931061	-106.860941
714.101119	-106.865936
714.271257	-107.233105
714.441476	-108.037641
714.611777	-109.405644
714.782159	-111.552569
714.952622	-114.746260
715.123166	-117.854666
715.293792	-115.661681
715.464499	-111.598783
715.635288	-108.579910
715.806158	-106.489810
715.977110	-105.084938
716.148143	-104.218234
716.319259	-103.804381
716.490456	-103.792035
716.661735	-104.147514
716.833096	-104.842461
717.004538	-105.838267
717.176063	-107.057583
717.347670	-108.333153
717.519359	-109.359815
717.691130	-109.788275
717.862984	-109.529466
718.034920	-108.844126
718.206938	-108.055298
718.379039	-107.363464
718.551222	-106.863624
718.723488	-106.599845
718.895836	-106.597156
719.068267	-106.875196
719.240781	-107.453864
719.413377	-108.356660
719.586057	-109.614807
719.758819	-111.275585
719.931664	-113.423186
720.104593	-116.237873
720.277604	-120.190913
720.450699	-126.855823
720.623876	-131.701893
720.797137	-122.371008
720.970482	-117.231718
721.143910	-113.758555
721.317421	-111.148401
721.491016	-109.115723
721.664694	-107.532652
721.838456	-106.331262
722.012302	-105.470597
722.186231	-104.923526
722.360244	-104.670253
722.534342	-104.693606
722.708523	-104.973336
