# 2022-03-21_23.23.15
# shape = sech2
# FWHM_ps = 0.1
# carrier_nm = 1542
# frep_MHz = 12126
# pow_mW = 8000
# GDD = 0.0
# propa_len = 0.12555555555555556
# untap_len = 0.01
# taper_len = 0.06555555555555556
# waist_len = 0.02
# uptap_len = 0.02
# untap_scale = 1.0
# waist_scale = 0.24210526315789477
# workingDir = NL_20110305_12 (Spirou)
# axis = slow
# window_ps = 10.0
# steps = 200
# points = 21700
# 
# wavelength [nm]	 power spectral density [dB]
600.043425	-87.081613
600.163550	-87.080414
600.283723	-86.937289
600.403943	-86.693833
600.524212	-86.418676
600.644529	-86.173263
600.764895	-86.007679
600.885308	-85.954562
601.005770	-86.022453
601.126280	-86.215051
601.246839	-86.525633
601.367446	-86.920182
601.488101	-87.350881
601.608804	-87.744259
601.729557	-88.025210
601.850357	-88.141105
601.971206	-88.078685
602.092104	-87.877338
602.213050	-87.602802
602.334045	-87.325785
602.455089	-87.108421
602.576181	-86.989181
602.697322	-86.986301
602.818511	-87.115392
602.939749	-87.375043
603.061036	-87.761167
603.182372	-88.251380
603.303757	-88.794585
603.425191	-89.322149
603.546673	-89.737055
603.668204	-89.956911
603.789785	-89.973965
603.911414	-89.832308
604.033092	-89.621979
604.154820	-89.426522
604.276596	-89.306702
604.398422	-89.298834
604.520297	-89.413218
604.642220	-89.645206
604.764193	-89.972472
604.886216	-90.356475
605.008287	-90.738846
605.130408	-91.051789
605.252578	-91.234260
605.374798	-91.257932
605.497066	-91.134474
605.619385	-90.913076
605.741752	-90.672547
605.864169	-90.493639
605.986636	-90.427321
606.109152	-90.512279
606.231718	-90.768537
606.354333	-91.201712
606.476998	-91.800219
606.599712	-92.509624
606.722476	-93.228944
606.845290	-93.802396
606.968154	-94.082596
607.091067	-93.981327
607.214030	-93.551991
607.337043	-92.959548
607.460106	-92.384276
607.583219	-91.932533
607.706381	-91.657711
607.829594	-91.599235
607.952856	-91.789632
608.076169	-92.243518
608.199531	-92.970455
608.322944	-93.944609
608.446407	-95.128727
608.569920	-96.361690
608.693483	-97.238709
608.817096	-97.229631
608.940759	-96.292534
609.064473	-94.966877
609.188237	-93.684050
609.312051	-92.621931
609.435916	-91.826774
609.559831	-91.296842
609.683796	-91.025447
609.807812	-91.002479
609.931878	-91.202725
610.055995	-91.598428
610.180162	-92.152346
610.304380	-92.813269
610.428648	-93.505700
610.552967	-94.079945
610.677337	-94.342388
610.801757	-94.180469
610.926228	-93.642755
611.050750	-92.923468
611.175323	-92.200035
611.299946	-91.595131
611.424620	-91.168950
611.549345	-90.932713
611.674121	-90.878092
611.798948	-90.982164
611.923826	-91.206614
612.048755	-91.501785
612.173734	-91.802958
612.298765	-92.038407
612.423847	-92.132247
612.548980	-92.038786
612.674165	-91.760884
612.799400	-91.363166
612.924687	-90.914552
613.050025	-90.475894
613.175414	-90.080243
613.300854	-89.748740
613.426346	-89.491589
613.551889	-89.316972
613.677484	-89.234222
613.803130	-89.240348
613.928827	-89.311170
614.054576	-89.398071
614.180377	-89.451870
614.306229	-89.421732
614.432132	-89.273123
614.558087	-88.993423
614.684094	-88.624286
614.810153	-88.234594
614.936263	-87.880065
615.062425	-87.575987
615.188639	-87.326658
615.314904	-87.145368
615.441222	-87.040099
615.567591	-86.991231
615.694012	-86.976692
615.820486	-86.980725
615.947011	-86.994331
616.073588	-86.987649
616.200217	-86.934521
616.326898	-86.820453
616.453632	-86.643533
616.580417	-86.403110
616.707255	-86.113612
616.834144	-85.799387
616.961086	-85.493896
617.088081	-85.221830
617.215127	-85.003385
617.342226	-84.859302
617.469378	-84.796873
617.596581	-84.803543
617.723837	-84.858232
617.851146	-84.942050
617.978507	-85.045256
618.105920	-85.153326
618.233386	-85.242118
618.360905	-85.289222
618.488476	-85.292061
618.616100	-85.249391
618.743777	-85.161692
618.871506	-85.031982
618.999288	-84.879493
619.127123	-84.719785
619.255011	-84.568301
619.382951	-84.439405
619.510945	-84.352861
619.638991	-84.316761
619.767090	-84.331688
619.895243	-84.390668
620.023448	-84.483598
620.151706	-84.594239
620.280017	-84.704604
620.408382	-84.791718
620.536799	-84.841402
620.665270	-84.844824
620.793794	-84.805551
620.922371	-84.729581
621.051002	-84.623120
621.179686	-84.500102
621.308423	-84.382986
621.437213	-84.297722
621.566057	-84.254758
621.694954	-84.259122
621.823905	-84.316225
621.952909	-84.429839
622.081967	-84.600547
622.211079	-84.828189
622.340244	-85.093585
622.469462	-85.361163
622.598735	-85.594909
622.728061	-85.769246
622.857441	-85.872549
622.986874	-85.903529
623.116361	-85.874668
623.245903	-85.810719
623.375498	-85.736163
623.505147	-85.674582
623.634850	-85.651997
623.764606	-85.687755
623.894417	-85.797075
624.024282	-85.988896
624.154201	-86.262389
624.284174	-86.599681
624.414202	-86.975740
624.544283	-87.370418
624.674419	-87.745696
624.804609	-88.045478
624.934853	-88.213153
625.065151	-88.218451
625.195504	-88.078171
625.325911	-87.856704
625.456373	-87.615578
625.586889	-87.409205
625.717460	-87.279204
625.848085	-87.250928
625.978764	-87.328540
626.109498	-87.499643
626.240287	-87.749135
626.371131	-88.074980
626.502029	-88.464584
626.632982	-88.870454
626.763989	-89.235879
626.895052	-89.498520
627.026169	-89.593517
627.157341	-89.497157
627.288568	-89.228101
627.419850	-88.854181
627.551187	-88.445997
627.682579	-88.064874
627.814026	-87.754250
627.945528	-87.534897
628.077085	-87.408437
628.208697	-87.356183
628.340364	-87.354510
628.472087	-87.388568
628.603865	-87.445209
628.735698	-87.485457
628.867586	-87.477429
628.999530	-87.401153
629.131529	-87.253132
629.263584	-87.050997
629.395694	-86.817095
629.527859	-86.577915
629.660080	-86.355851
629.792357	-86.156813
629.924689	-85.988530
630.057077	-85.861346
630.189520	-85.782229
630.322019	-85.750107
630.454574	-85.740416
630.587184	-85.729686
630.719851	-85.711263
630.852573	-85.681884
630.985351	-85.639381
631.118185	-85.579369
631.251075	-85.502738
631.384021	-85.420386
631.517023	-85.346850
631.650081	-85.298224
631.783195	-85.275161
631.916365	-85.270600
632.049592	-85.281381
632.182874	-85.301128
632.316213	-85.313569
632.449608	-85.303497
632.583059	-85.250120
632.716567	-85.141388
632.850131	-84.990366
632.983751	-84.820231
633.117428	-84.657482
633.251161	-84.525331
633.384951	-84.441426
633.518797	-84.427111
633.652700	-84.500524
633.786660	-84.663170
633.920676	-84.899667
634.054749	-85.196186
634.188879	-85.523332
634.323065	-85.823720
634.457308	-86.050899
634.591608	-86.165764
634.725965	-86.148499
634.860379	-86.005225
634.994850	-85.765756
635.129377	-85.474540
635.263962	-85.186681
635.398604	-84.953428
635.533303	-84.807760
635.668058	-84.770975
635.802872	-84.851366
635.937742	-85.053858
636.072669	-85.377487
636.207654	-85.797227
636.342696	-86.272540
636.477796	-86.741055
636.612953	-87.117937
636.748167	-87.337941
636.883439	-87.370245
637.018768	-87.214866
637.154155	-86.934079
637.289599	-86.607783
637.425101	-86.303170
637.560660	-86.063289
637.696277	-85.909822
637.831952	-85.858722
637.967685	-85.900392
638.103475	-86.030245
638.239324	-86.230235
638.375230	-86.462857
638.511194	-86.693630
638.647215	-86.887317
638.783295	-86.995066
638.919433	-86.985433
639.055629	-86.854738
639.191883	-86.639499
639.328195	-86.378473
639.464565	-86.096894
639.600994	-85.813482
639.737481	-85.542566
639.874025	-85.291278
640.010629	-85.061818
640.147290	-84.834530
640.284010	-84.597490
640.420789	-84.350015
640.557625	-84.108959
640.694521	-83.882364
640.831474	-83.667311
640.968487	-83.463083
641.105558	-83.271904
641.242687	-83.097553
641.379876	-82.948778
641.517123	-82.816840
641.654429	-82.682794
641.791793	-82.538318
641.929216	-82.377513
642.066699	-82.203272
642.204240	-82.006944
642.341840	-81.780045
642.479499	-81.526043
642.617217	-81.252915
642.754994	-80.976478
642.892830	-80.710347
643.030726	-80.458189
643.168680	-80.225232
643.306694	-80.025307
643.444767	-79.864719
643.582899	-79.744823
643.721091	-79.659268
643.859342	-79.595157
643.997652	-79.551919
644.136022	-79.527888
644.274451	-79.515933
644.412940	-79.509120
644.551488	-79.499785
644.690096	-79.481750
644.828763	-79.455772
644.967490	-79.423270
645.106277	-79.376180
645.245124	-79.308005
645.384030	-79.222270
645.522997	-79.128824
645.662023	-79.033423
645.801109	-78.936856
645.940255	-78.843237
646.079460	-78.768430
646.218726	-78.722716
646.358052	-78.707391
646.497438	-78.718793
646.636884	-78.755569
646.776391	-78.819250
646.915957	-78.907699
647.055584	-79.016236
647.195271	-79.140280
647.335019	-79.271413
647.474826	-79.402075
647.614695	-79.525680
647.754623	-79.634793
647.894612	-79.724561
648.034662	-79.794941
648.174772	-79.848184
648.314943	-79.890275
648.455174	-79.928805
648.595466	-79.977926
648.735819	-80.047712
648.876233	-80.137027
649.016707	-80.241818
649.157242	-80.362212
649.297838	-80.496472
649.438495	-80.646333
649.579213	-80.815229
649.719992	-81.011069
649.860832	-81.248732
650.001733	-81.532901
650.142695	-81.868101
650.283718	-82.252968
650.424803	-82.678627
650.565949	-83.149387
650.707156	-83.672206
650.848424	-84.218619
650.989754	-84.763199
651.131145	-85.304632
651.272597	-85.850332
651.414111	-86.406922
651.555687	-86.968573
651.697324	-87.541062
651.839022	-88.151373
651.980782	-88.843837
652.122604	-89.673673
652.264488	-90.705943
652.406433	-92.004530
652.548441	-93.657656
652.690510	-95.811269
652.832640	-98.716516
652.974833	-103.053568
653.117088	-111.640594
653.259405	-113.006603
653.401784	-103.777082
653.544224	-99.287503
653.686727	-96.247693
653.829293	-93.839934
653.971920	-91.804235
654.114609	-90.064231
654.257361	-88.571176
654.400175	-87.287037
654.543052	-86.169487
654.685991	-85.198925
654.828992	-84.372280
654.972056	-83.689834
655.115183	-83.136030
655.258372	-82.683270
655.401623	-82.310652
655.544937	-82.006300
655.688314	-81.745996
655.831754	-81.494415
655.975256	-81.232022
656.118822	-80.947995
656.262450	-80.629831
656.406141	-80.280806
656.549894	-79.909412
656.693711	-79.542461
656.837591	-79.201793
656.981534	-78.895212
657.125540	-78.632415
657.269610	-78.416186
657.413742	-78.238139
657.557938	-78.091087
657.702196	-77.959721
657.846519	-77.832745
657.990904	-77.704129
658.135353	-77.570583
658.279866	-77.441490
658.424441	-77.326321
658.569081	-77.221467
658.713784	-77.132416
658.858550	-77.068462
659.003381	-77.029413
659.148274	-77.017863
659.293232	-77.031742
659.438253	-77.071108
659.583339	-77.140762
659.728488	-77.227681
659.873701	-77.317018
660.018978	-77.404939
660.164318	-77.479463
660.309723	-77.532663
660.455192	-77.566419
660.600725	-77.584841
660.746323	-77.597660
660.891984	-77.611217
661.037710	-77.627451
661.183500	-77.655363
661.329354	-77.694390
661.475272	-77.737566
661.621255	-77.783846
661.767303	-77.832202
661.913415	-77.887835
662.059591	-77.955408
662.205833	-78.026125
662.352138	-78.103147
662.498509	-78.192205
662.644944	-78.293822
662.791443	-78.412694
662.938008	-78.542908
663.084638	-78.684612
663.231332	-78.843146
663.378091	-79.022362
663.524915	-79.216290
663.671804	-79.411222
663.818759	-79.601364
663.965778	-79.792649
664.112863	-79.972865
664.260012	-80.120338
664.407227	-80.223865
664.554507	-80.296417
664.701853	-80.351818
664.849264	-80.376590
664.996740	-80.360402
665.144282	-80.325603
665.291889	-80.284292
665.439561	-80.226919
665.587300	-80.141555
665.735103	-80.031794
665.882973	-79.911582
666.030908	-79.777879
666.178909	-79.613427
666.326976	-79.424148
666.475109	-79.218969
666.623307	-78.995341
666.771571	-78.762761
666.919902	-78.523998
667.068298	-78.285664
667.216761	-78.066524
667.365289	-77.869751
667.513884	-77.694361
667.662545	-77.542008
667.811272	-77.406185
667.960065	-77.283887
668.108925	-77.174891
668.257851	-77.072185
668.406843	-76.979228
668.555902	-76.893199
668.705027	-76.807776
668.854219	-76.724009
669.003478	-76.646057
669.152803	-76.568925
669.302195	-76.490270
669.451653	-76.417001
669.601179	-76.358780
669.750771	-76.319601
669.900430	-76.295996
670.050156	-76.287105
670.199949	-76.297495
670.349808	-76.318473
670.499735	-76.343328
670.649729	-76.375703
670.799790	-76.417248
670.949918	-76.467939
671.100114	-76.528371
671.250377	-76.601086
671.400707	-76.689267
671.551104	-76.795509
671.701569	-76.922790
671.852101	-77.073053
672.002700	-77.256076
672.153368	-77.479440
672.304102	-77.739709
672.454905	-78.037327
672.605775	-78.372505
672.756713	-78.738530
672.907718	-79.127524
673.058791	-79.525145
673.209933	-79.919674
673.361142	-80.304883
673.512419	-80.665941
673.663764	-80.971514
673.815177	-81.204690
673.966658	-81.345460
674.118207	-81.383764
674.269825	-81.314025
674.421510	-81.126581
674.573264	-80.826216
674.725086	-80.448442
674.876977	-80.024297
675.028936	-79.563919
675.180963	-79.074990
675.333059	-78.569932
675.485224	-78.075263
675.637457	-77.597007
675.789758	-77.117598
675.942129	-76.643757
676.094568	-76.188870
676.247075	-75.750403
676.399652	-75.324672
676.552298	-74.912094
676.705012	-74.516876
676.857795	-74.146025
677.010648	-73.797152
677.163569	-73.471155
677.316560	-73.168041
677.469619	-72.884878
677.622748	-72.618154
677.775946	-72.362347
677.929214	-72.117549
678.082551	-71.884554
678.235957	-71.661850
678.389432	-71.454166
678.542977	-71.265455
678.696592	-71.094659
678.850276	-70.942815
679.004030	-70.812380
679.157853	-70.707197
679.311746	-70.624771
679.465709	-70.562814
679.619742	-70.521068
679.773844	-70.495513
679.928017	-70.483833
680.082259	-70.485025
680.236571	-70.498133
680.390954	-70.523351
680.545406	-70.565793
680.699929	-70.630314
680.854522	-70.720266
681.009185	-70.841103
681.163918	-70.998289
681.318722	-71.187513
681.473596	-71.402368
681.628540	-71.643723
681.783555	-71.906093
681.938641	-72.182724
682.093797	-72.477544
682.249023	-72.798952
682.404321	-73.153670
682.559689	-73.549029
682.715128	-74.003452
682.870637	-74.541171
683.026218	-75.171747
683.181869	-75.905665
683.337591	-76.769971
683.493385	-77.775776
683.649249	-78.931836
683.805185	-80.285333
683.961191	-81.902121
684.117269	-83.892541
684.273418	-86.494650
684.429639	-90.307850
684.585930	-97.185561
684.742294	-100.480465
684.898728	-91.524655
685.055234	-86.741582
685.211812	-83.606026
685.368461	-81.310433
685.525182	-79.515287
685.681975	-78.075457
685.838839	-76.894311
685.995775	-75.896306
686.152783	-75.029890
686.309863	-74.259937
686.467014	-73.560347
686.624238	-72.911779
686.781534	-72.309973
686.938902	-71.760036
687.096342	-71.259219
687.253854	-70.810715
687.411438	-70.417190
687.569095	-70.069206
687.726824	-69.762318
687.884626	-69.489218
688.042499	-69.239612
688.200446	-69.011243
688.358465	-68.803354
688.516556	-68.610927
688.674720	-68.435670
688.832957	-68.281419
688.991266	-68.148990
689.149649	-68.040784
689.308104	-67.959095
689.466632	-67.906335
689.625233	-67.881232
689.783906	-67.881092
689.942653	-67.904799
690.101473	-67.953568
690.260367	-68.030377
690.419333	-68.141017
690.578372	-68.288896
690.737485	-68.478393
690.896672	-68.713394
691.055931	-68.990392
691.215264	-69.309298
691.374671	-69.675628
691.534151	-70.091464
691.693704	-70.560091
691.853332	-71.091179
692.013033	-71.693188
692.172807	-72.377296
692.332656	-73.162293
692.492578	-74.071078
692.652575	-75.130873
692.812645	-76.374131
692.972789	-77.848706
693.133007	-79.608054
693.293300	-81.714857
693.453666	-84.207879
693.614107	-86.801361
693.774622	-87.921110
693.935211	-86.318473
694.095875	-83.707878
694.256613	-81.318597
694.417426	-79.335325
694.578313	-77.678867
694.739274	-76.292394
694.900311	-75.110541
695.061421	-74.088151
695.222607	-73.202562
695.383868	-72.421905
695.545203	-71.733732
695.706613	-71.125537
695.868098	-70.575843
696.029658	-70.081238
696.191293	-69.635775
696.353003	-69.229173
696.514789	-68.866916
696.676649	-68.544285
696.838585	-68.253194
697.000596	-68.002478
697.162682	-67.784835
697.324844	-67.596176
697.487081	-67.448631
697.649394	-67.334184
697.811782	-67.255379
697.974246	-67.219946
698.136786	-67.216587
698.299401	-67.246652
698.462092	-67.314312
698.624859	-67.409187
698.787702	-67.537062
698.950621	-67.704764
699.113616	-67.909242
699.276686	-68.162975
699.439833	-68.471821
699.603056	-68.837207
699.766355	-69.271798
699.929731	-69.768290
700.093183	-70.328005
700.256711	-70.962903
700.420315	-71.665326
700.583996	-72.458936
700.747754	-73.377138
700.911588	-74.432146
701.075499	-75.685387
701.239486	-77.176035
701.403550	-78.878318
701.567691	-80.688139
701.731909	-82.052365
701.896203	-82.163677
702.060575	-81.000529
702.225024	-79.304758
702.389549	-77.621886
702.554152	-76.093282
702.718832	-74.722908
702.883589	-73.500002
703.048424	-72.401389
703.213335	-71.416306
703.378324	-70.541503
703.543391	-69.769257
703.708535	-69.096644
703.873757	-68.514231
704.039056	-68.004960
704.204433	-67.560434
704.369887	-67.162908
704.535420	-66.800958
704.701030	-66.475615
704.866718	-66.182854
705.032484	-65.926133
705.198328	-65.715560
705.364250	-65.548211
705.530250	-65.429458
705.696328	-65.363107
705.862485	-65.342716
706.028720	-65.367147
706.195033	-65.433803
706.361424	-65.540186
706.527894	-65.690448
706.694442	-65.889560
706.861069	-66.142347
707.027775	-66.456506
707.194559	-66.835838
707.361422	-67.287025
707.528363	-67.815901
707.695384	-68.423594
707.862483	-69.105356
708.029661	-69.848023
708.196918	-70.629902
708.364254	-71.430428
708.531670	-72.212384
708.699164	-72.925639
708.866738	-73.505816
709.034391	-73.840311
709.202123	-73.842748
709.369935	-73.490962
709.537826	-72.844882
709.705796	-72.046243
709.873847	-71.206245
710.041976	-70.396087
710.210186	-69.648306
710.378475	-68.962294
710.546844	-68.330448
710.715292	-67.745064
710.883821	-67.199512
711.052429	-66.695974
711.221118	-66.233518
711.389887	-65.814676
711.558735	-65.438828
711.727664	-65.103917
711.896673	-64.804892
712.065763	-64.535296
712.234932	-64.288615
712.404183	-64.061643
712.573513	-63.855957
712.742924	-63.676701
712.912416	-63.533244
713.081988	-63.427942
713.251641	-63.362229
713.421375	-63.335278
713.591190	-63.340140
713.761085	-63.373896
713.931061	-63.436367
714.101119	-63.527019
714.271257	-63.652830
714.441476	-63.819275
714.611777	-64.027677
714.782159	-64.280160
714.952622	-64.567323
715.123166	-64.876130
715.293792	-65.192216
715.464499	-65.497928
715.635288	-65.780792
715.806158	-66.028628
715.977110	-66.228822
716.148143	-66.365712
716.319259	-66.421859
716.490456	-66.385246
716.661735	-66.253459
716.833096	-66.034923
717.004538	-65.749971
717.176063	-65.420160
717.347670	-65.066951
717.519359	-64.706038
717.691130	-64.344983
717.862984	-63.989175
718.034920	-63.643843
718.206938	-63.314614
718.379039	-63.008671
718.551222	-62.726459
718.723488	-62.467175
718.895836	-62.231488
719.068267	-62.017921
719.240781	-61.826158
719.413377	-61.656437
719.586057	-61.509645
719.758819	-61.390466
719.931664	-61.303052
720.104593	-61.251527
720.277604	-61.234733
720.450699	-61.252598
720.623876	-61.304466
720.797137	-61.389726
720.970482	-61.508681
721.143910	-61.660008
721.317421	-61.843622
721.491016	-62.055600
721.664694	-62.290658
721.838456	-62.534566
722.012302	-62.768174
722.186231	-62.971587
722.360244	-63.124589
722.534342	-63.212930
722.708523	-63.226598
722.882788	-63.158668
723.057137	-63.010751
723.231570	-62.792160
723.406088	-62.518350
723.580689	-62.207007
723.755375	-61.874708
723.930146	-61.538287
724.105000	-61.211375
724.279940	-60.903400
724.454963	-60.621460
724.630072	-60.367528
724.805265	-60.142398
724.980543	-59.944743
725.155905	-59.772868
725.331353	-59.627103
725.506885	-59.508500
725.682503	-59.416826
725.858205	-59.353186
726.033993	-59.315530
726.209865	-59.301766
726.385823	-59.308955
726.561866	-59.338851
726.737995	-59.395979
726.914209	-59.485650
727.090508	-59.611012
727.266893	-59.770966
727.443364	-59.962311
727.619920	-60.181230
727.796562	-60.424518
727.973290	-60.686516
728.150103	-60.960069
728.327003	-61.232508
728.503988	-61.485160
728.681060	-61.691307
728.858218	-61.821956
729.035461	-61.857875
729.212791	-61.795504
729.390208	-61.645014
729.567710	-61.419053
