# 2022-03-22_11.43.33
# shape = sech2
# FWHM_ps = 0.11
# carrier_nm = 1542
# frep_MHz = 12126
# pow_mW = 8000
# GDD = 0.0
# propa_len = 0.13933333333333334
# untap_len = 0.01
# taper_len = 0.07933333333333334
# waist_len = 0.02
# uptap_len = 0.02
# untap_scale = 1.0
# waist_scale = 0.3052631578947369
# workingDir = NL_20110305_12 (Spirou)
# axis = slow
# window_ps = 10.0
# steps = 200
# points = 21700
# 
# wavelength [nm]	 power spectral density [dB]
600.043425	-116.693323
600.163550	-117.690039
600.283723	-118.378569
600.403943	-118.705648
600.524212	-118.733379
600.644529	-118.574980
600.764895	-118.320839
600.885308	-118.013363
601.005770	-117.658332
601.126280	-117.246648
601.246839	-116.769521
601.367446	-116.227052
601.488101	-115.628196
601.608804	-114.988082
601.729557	-114.324198
601.850357	-113.655136
601.971206	-112.999451
602.092104	-112.375373
602.213050	-111.799410
602.334045	-111.284832
602.455089	-110.839895
602.576181	-110.466528
602.697322	-110.159153
602.818511	-109.904102
602.939749	-109.680292
603.061036	-109.461282
603.182372	-109.219995
603.303757	-108.935224
603.425191	-108.597486
603.546673	-108.210694
603.668204	-107.789179
603.789785	-107.351468
603.911414	-106.913828
604.033092	-106.485658
604.154820	-106.068058
604.276596	-105.654909
604.398422	-105.236130
604.520297	-104.802330
604.642220	-104.349128
604.764193	-103.880053
604.886216	-103.406778
605.008287	-102.946697
605.130408	-102.519588
605.252578	-102.144241
605.374798	-101.836181
605.497066	-101.606486
605.619385	-101.461057
605.741752	-101.400638
605.864169	-101.420502
605.986636	-101.510322
606.109152	-101.654179
606.231718	-101.830886
606.354333	-102.015461
606.476998	-102.181717
606.599712	-102.306283
606.722476	-102.372470
606.845290	-102.372325
606.968154	-102.306175
607.091067	-102.179529
607.214030	-101.999746
607.337043	-101.773831
607.460106	-101.508181
607.583219	-101.210085
607.706381	-100.889496
607.829594	-100.559844
607.952856	-100.237718
608.076169	-99.941269
608.199531	-99.688354
608.322944	-99.494779
608.446407	-99.373137
608.569920	-99.331841
608.693483	-99.374545
608.817096	-99.499497
608.940759	-99.698812
609.064473	-99.957715
609.188237	-100.254216
609.312051	-100.559836
609.435916	-100.842602
609.559831	-101.072691
609.683796	-101.229669
609.807812	-101.307631
609.931878	-101.315536
610.055995	-101.272274
610.180162	-101.199127
610.304380	-101.113852
610.428648	-101.027682
610.552967	-100.945574
610.677337	-100.868475
610.801757	-100.796508
610.926228	-100.732110
611.050750	-100.682104
611.175323	-100.658136
611.299946	-100.675753
611.424620	-100.752560
611.549345	-100.906346
611.674121	-101.153229
611.798948	-101.506362
611.923826	-101.974978
612.048755	-102.562783
612.173734	-103.265896
612.298765	-104.069627
612.423847	-104.944107
612.548980	-105.841026
612.674165	-106.695267
612.799400	-107.436889
612.924687	-108.014828
613.050025	-108.417121
613.175414	-108.668702
613.300854	-108.806180
613.426346	-108.850989
613.551889	-108.798186
613.677484	-108.625828
613.803130	-108.318404
613.928827	-107.888226
614.054576	-107.379335
614.180377	-106.854168
614.306229	-106.374002
614.432132	-105.987727
614.558087	-105.729007
614.684094	-105.618171
614.810153	-105.664194
614.936263	-105.866102
615.062425	-106.211760
615.188639	-106.674656
615.314904	-107.208935
615.441222	-107.746192
615.567591	-108.202076
615.694012	-108.500016
615.820486	-108.605729
615.947011	-108.544701
616.073588	-108.384256
616.200217	-108.198541
616.326898	-108.043170
616.453632	-107.947416
616.580417	-107.917192
616.707255	-107.941836
616.834144	-108.002574
616.961086	-108.081499
617.088081	-108.170566
617.215127	-108.277675
617.342226	-108.427442
617.469378	-108.658047
617.596581	-109.015248
617.723837	-109.547783
617.851146	-110.303643
617.978507	-111.322432
618.105920	-112.608731
618.233386	-114.042523
618.360905	-115.171314
618.488476	-115.204770
618.616100	-113.962431
618.743777	-112.173923
618.871506	-110.426162
618.999288	-108.911010
619.127123	-107.644911
619.255011	-106.594169
619.382951	-105.715656
619.510945	-104.968528
619.638991	-104.318228
619.767090	-103.738401
619.895243	-103.212159
620.023448	-102.731989
620.151706	-102.298470
620.280017	-101.917384
620.408382	-101.596596
620.536799	-101.342779
620.665270	-101.158497
620.793794	-101.039822
620.922371	-100.974103
621.051002	-100.938768
621.179686	-100.901140
621.308423	-100.822205
621.437213	-100.664766
621.566057	-100.404928
621.694954	-100.040667
621.823905	-99.592554
621.952909	-99.095535
622.081967	-98.587942
622.211079	-98.102814
622.340244	-97.663997
622.469462	-97.285519
622.598735	-96.972954
622.728061	-96.725158
622.857441	-96.535747
622.986874	-96.394583
623.116361	-96.289482
623.245903	-96.208112
623.375498	-96.139935
623.505147	-96.078247
623.634850	-96.021345
623.764606	-95.972902
623.894417	-95.941152
624.024282	-95.937406
624.154201	-95.974151
624.284174	-96.063302
624.414202	-96.214882
624.544283	-96.435934
624.674419	-96.729973
624.804609	-97.096228
624.934853	-97.529085
625.065151	-98.017662
625.195504	-98.545786
625.325911	-99.093163
625.456373	-99.638209
625.586889	-100.162792
625.717460	-100.657849
625.848085	-101.127824
625.978764	-101.591621
626.109498	-102.080044
626.240287	-102.631133
626.371131	-103.286243
626.502029	-104.087979
626.632982	-105.079550
626.763989	-106.304654
626.895052	-107.799863
627.026169	-109.558078
627.157341	-111.389164
627.288568	-112.607183
627.419850	-112.253234
627.551187	-110.555980
627.682579	-108.491335
627.814026	-106.534779
627.945528	-104.778552
628.077085	-103.203938
628.208697	-101.776785
628.340364	-100.470998
628.472087	-99.270934
628.603865	-98.169187
628.735698	-97.163366
628.867586	-96.253496
628.999530	-95.440133
629.131529	-94.723356
629.263584	-94.102114
629.395694	-93.573826
629.527859	-93.134200
629.660080	-92.776933
629.792357	-92.493473
629.924689	-92.272829
630.057077	-92.101436
630.189520	-91.963392
630.322019	-91.841179
630.454574	-91.716876
630.587184	-91.574031
630.719851	-91.399986
630.852573	-91.187621
630.985351	-90.936078
631.118185	-90.650054
631.251075	-90.337926
631.384021	-90.009593
631.517023	-89.674350
631.650081	-89.339495
631.783195	-89.009689
631.916365	-88.686952
632.049592	-88.371133
632.182874	-88.060642
632.316213	-87.753286
632.449608	-87.447115
632.583059	-87.141135
632.716567	-86.835831
632.850131	-86.533368
632.983751	-86.237397
633.117428	-85.952709
633.251161	-85.684721
633.384951	-85.438935
633.518797	-85.220400
633.652700	-85.033203
633.786660	-84.880157
633.920676	-84.762485
634.054749	-84.679632
634.188879	-84.629102
634.323065	-84.606378
634.457308	-84.605019
634.591608	-84.616914
634.725965	-84.632833
634.860379	-84.643245
634.994850	-84.639455
635.129377	-84.614823
635.263962	-84.565828
635.398604	-84.492643
635.533303	-84.399073
635.668058	-84.291884
635.802872	-84.179722
635.937742	-84.071903
636.072669	-83.977387
636.207654	-83.904005
636.342696	-83.858109
636.477796	-83.844369
636.612953	-83.865761
636.748167	-83.923618
636.883439	-84.017750
637.018768	-84.146634
637.154155	-84.307570
637.289599	-84.496867
637.425101	-84.710051
637.560660	-84.942188
637.696277	-85.188209
637.831952	-85.443335
637.967685	-85.703529
638.103475	-85.965941
638.239324	-86.229227
638.375230	-86.493725
638.511194	-86.761422
638.647215	-87.035740
638.783295	-87.321122
638.919433	-87.622612
639.055629	-87.945346
639.191883	-88.293865
639.328195	-88.671608
639.464565	-89.080321
639.600994	-89.519467
639.737481	-89.985367
639.874025	-90.470099
640.010629	-90.960153
640.147290	-91.434946
640.284010	-91.865879
640.420789	-92.217140
640.557625	-92.449447
640.694521	-92.528116
640.831474	-92.433032
640.968487	-92.166019
641.105558	-91.750321
641.242687	-91.222878
641.379876	-90.624205
641.517123	-89.990678
641.654429	-89.351180
641.791793	-88.726583
641.929216	-88.130968
642.066699	-87.573112
642.204240	-87.057927
642.341840	-86.587553
642.479499	-86.162166
642.617217	-85.780559
642.754994	-85.440525
642.892830	-85.139160
643.030726	-84.873017
643.168680	-84.638251
643.306694	-84.430692
643.444767	-84.245932
643.582899	-84.079443
643.721091	-83.926732
643.859342	-83.783604
643.997652	-83.646368
644.136022	-83.512052
644.274451	-83.378633
644.412940	-83.245148
644.551488	-83.111683
644.690096	-82.979205
644.828763	-82.849362
644.967490	-82.724188
645.106277	-82.605844
645.245124	-82.496347
645.384030	-82.397456
645.522997	-82.310572
645.662023	-82.236730
645.801109	-82.176602
645.940255	-82.130570
646.079460	-82.098753
646.218726	-82.081048
646.358052	-82.077097
646.497438	-82.086297
646.636884	-82.107810
646.776391	-82.140608
646.915957	-82.183504
647.055584	-82.235196
647.195271	-82.294356
647.335019	-82.359686
647.474826	-82.429936
647.614695	-82.503922
647.754623	-82.580448
647.894612	-82.658212
648.034662	-82.735738
648.174772	-82.811291
648.314943	-82.882811
648.455174	-82.947996
648.595466	-83.004378
648.735819	-83.049433
648.876233	-83.080735
649.016707	-83.096119
649.157242	-83.093789
649.297838	-83.072430
649.438495	-83.031239
649.579213	-82.969901
649.719992	-82.888468
649.860832	-82.787384
650.001733	-82.667452
650.142695	-82.529767
650.283718	-82.375763
650.424803	-82.207193
650.565949	-82.026140
650.707156	-81.835019
650.848424	-81.636482
650.989754	-81.433315
651.131145	-81.228304
651.272597	-81.024084
651.414111	-80.823029
651.555687	-80.627167
651.697324	-80.438159
651.839022	-80.257301
651.980782	-80.085579
652.122604	-79.923676
652.264488	-79.772038
652.406433	-79.630951
652.548441	-79.500591
652.690510	-79.381051
652.832640	-79.272409
652.974833	-79.174733
653.117088	-79.088074
653.259405	-79.012490
653.401784	-78.948032
653.544224	-78.894752
653.686727	-78.852694
653.829293	-78.821832
653.971920	-78.802072
654.114609	-78.793194
654.257361	-78.794877
654.400175	-78.806683
654.543052	-78.828069
654.685991	-78.858435
654.828992	-78.897226
654.972056	-78.944048
655.115183	-78.998754
655.258372	-79.061550
655.401623	-79.133009
655.544937	-79.214122
655.688314	-79.306230
655.831754	-79.411032
655.975256	-79.530528
656.118822	-79.667064
656.262450	-79.823347
656.406141	-80.002456
656.549894	-80.207856
656.693711	-80.443458
656.837591	-80.713730
656.981534	-81.023732
657.125540	-81.379233
657.269610	-81.786910
657.413742	-82.254653
657.557938	-82.791972
657.702196	-83.410582
657.846519	-84.125249
657.990904	-84.954770
658.135353	-85.923439
658.279866	-87.062787
658.424441	-88.412813
658.569081	-90.018442
658.713784	-91.902640
658.858550	-93.942500
659.003381	-95.491870
659.148274	-95.338942
659.293232	-93.541954
659.438253	-91.312442
659.583339	-89.248522
659.728488	-87.454795
659.873701	-85.903774
660.018978	-84.549698
660.164318	-83.352838
660.309723	-82.282322
660.455192	-81.314709
660.600725	-80.432095
660.746323	-79.620630
660.891984	-78.869443
661.037710	-78.169898
661.183500	-77.515102
661.329354	-76.899602
661.475272	-76.319172
661.621255	-75.770632
661.767303	-75.251688
661.913415	-74.760736
662.059591	-74.296664
662.205833	-73.858707
662.352138	-73.446319
662.498509	-73.059054
662.644944	-72.696511
662.791443	-72.358316
662.938008	-72.044129
663.084638	-71.753648
663.231332	-71.486569
663.378091	-71.242555
663.524915	-71.021219
663.671804	-70.822088
663.818759	-70.644573
663.965778	-70.487963
664.112863	-70.351441
664.260012	-70.234126
664.407227	-70.135111
664.554507	-70.053491
664.701853	-69.988401
664.849264	-69.938975
664.996740	-69.904328
665.144282	-69.883521
665.291889	-69.875517
665.439561	-69.879165
665.587300	-69.893205
665.735103	-69.916315
665.882973	-69.947188
666.030908	-69.984637
666.178909	-70.027683
666.326976	-70.075620
666.475109	-70.128057
666.623307	-70.184918
666.771571	-70.246433
666.919902	-70.313090
667.068298	-70.385575
667.216761	-70.464770
667.365289	-70.551771
667.513884	-70.647911
667.662545	-70.754770
667.811272	-70.874153
667.960065	-71.008057
668.108925	-71.158604
668.257851	-71.327950
668.406843	-71.518188
668.555902	-71.731234
668.705027	-71.968739
668.854219	-72.232033
669.003478	-72.521998
669.152803	-72.838931
669.302195	-73.182309
669.451653	-73.550475
669.601179	-73.940218
669.750771	-74.346182
669.900430	-74.760170
670.050156	-75.170379
670.199949	-75.560890
670.349808	-75.911757
670.499735	-76.200171
670.649729	-76.403107
670.799790	-76.501387
670.949918	-76.484167
671.100114	-76.351822
671.250377	-76.115837
671.400707	-75.795650
671.551104	-75.414189
671.701569	-74.993805
671.852101	-74.553654
672.002700	-74.108672
672.153368	-73.669587
672.304102	-73.243534
672.454905	-72.834809
672.605775	-72.445628
672.756713	-72.076713
672.907718	-71.727792
673.058791	-71.397965
673.209933	-71.085962
673.361142	-70.790345
673.512419	-70.509681
673.663764	-70.242679
673.815177	-69.988307
673.966658	-69.745837
674.118207	-69.514846
674.269825	-69.295211
674.421510	-69.087043
674.573264	-68.890576
674.725086	-68.706064
674.876977	-68.533741
675.028936	-68.373793
675.180963	-68.226366
675.333059	-68.091579
675.485224	-67.969567
675.637457	-67.860504
675.789758	-67.764594
675.942129	-67.682046
676.094568	-67.613038
676.247075	-67.557671
676.399652	-67.515945
676.552298	-67.487745
676.705012	-67.472868
676.857795	-67.471058
677.010648	-67.482073
677.163569	-67.505703
677.316560	-67.541765
677.469619	-67.590042
677.622748	-67.650212
677.775946	-67.721781
677.929214	-67.804033
678.082551	-67.896032
678.235957	-67.996650
678.389432	-68.104651
678.542977	-68.218810
678.696592	-68.338016
678.850276	-68.461324
679.004030	-68.587978
679.157853	-68.717371
679.311746	-68.848987
679.465709	-68.982377
679.619742	-69.117190
679.773844	-69.253220
679.928017	-69.390517
680.082259	-69.529474
680.236571	-69.670869
680.390954	-69.815846
680.545406	-69.965829
680.699929	-70.122339
680.854522	-70.286811
681.009185	-70.460420
681.163918	-70.643964
681.318722	-70.837826
681.473596	-71.041980
681.628540	-71.256043
681.783555	-71.479325
681.938641	-71.710841
682.093797	-71.949246
682.249023	-72.192743
682.404321	-72.438913
682.559689	-72.684521
682.715128	-72.925396
682.870637	-73.156404
683.026218	-73.371519
683.181869	-73.564018
683.337591	-73.726922
683.493385	-73.853601
683.649249	-73.938439
683.805185	-73.977370
683.961191	-73.968364
684.117269	-73.911659
684.273418	-73.809637
684.429639	-73.666495
684.585930	-73.487820
684.742294	-73.280094
684.898728	-73.050201
685.055234	-72.805060
685.211812	-72.551302
685.368461	-72.295030
685.525182	-72.041571
685.681975	-71.795411
685.838839	-71.560092
685.995775	-71.338200
686.152783	-71.131440
686.309863	-70.940726
686.467014	-70.766378
686.624238	-70.608293
686.781534	-70.466034
686.938902	-70.338920
687.096342	-70.226103
687.253854	-70.126567
687.411438	-70.039115
687.569095	-69.962376
687.726824	-69.894900
687.884626	-69.835252
688.042499	-69.782118
688.200446	-69.734404
688.358465	-69.691318
688.516556	-69.652375
688.674720	-69.617391
688.832957	-69.586456
688.991266	-69.559861
689.149649	-69.538012
689.308104	-69.521389
689.466632	-69.510504
689.625233	-69.505946
689.783906	-69.508356
689.942653	-69.518375
690.101473	-69.536590
690.260367	-69.563478
690.419333	-69.599429
690.578372	-69.644758
690.737485	-69.699726
690.896672	-69.764584
691.055931	-69.839545
691.215264	-69.924847
691.374671	-70.020766
691.534151	-70.127574
691.693704	-70.245488
691.853332	-70.374715
692.013033	-70.515447
692.172807	-70.667930
692.332656	-70.832535
692.492578	-71.009740
692.652575	-71.200092
692.812645	-71.404053
692.972789	-71.621871
693.133007	-71.853372
693.293300	-72.097825
693.453666	-72.353831
693.614107	-72.619424
693.774622	-72.892258
693.935211	-73.169973
694.095875	-73.450500
694.256613	-73.732324
694.417426	-74.014658
694.578313	-74.297392
694.739274	-74.580848
694.900311	-74.865527
695.061421	-75.151877
695.222607	-75.440254
695.383868	-75.730956
695.545203	-76.024360
695.706613	-76.320908
695.868098	-76.620852
696.029658	-76.923649
696.191293	-77.227094
696.353003	-77.526128
696.514789	-77.811706
696.676649	-78.070480
696.838585	-78.285398
697.000596	-78.437726
697.162682	-78.510593
697.324844	-78.493131
697.487081	-78.383284
697.649394	-78.188315
697.811782	-77.922630
697.974246	-77.604080
698.136786	-77.250720
698.299401	-76.878644
698.462092	-76.501109
698.624859	-76.128627
698.787702	-75.769362
698.950621	-75.429649
699.113616	-75.114369
699.276686	-74.827032
699.439833	-74.569799
699.603056	-74.343103
699.766355	-74.145410
699.929731	-73.973083
700.093183	-73.820569
700.256711	-73.680826
700.420315	-73.546043
700.583996	-73.408564
700.747754	-73.261965
700.911588	-73.101923
701.075499	-72.926587
701.239486	-72.736464
701.403550	-72.533821
701.567691	-72.321837
701.731909	-72.104043
701.896203	-71.884002
702.060575	-71.665209
702.225024	-71.451097
702.389549	-71.245152
702.554152	-71.051022
702.718832	-70.872441
702.883589	-70.713033
703.048424	-70.576104
703.213335	-70.464456
703.378324	-70.380137
703.543391	-70.324428
703.708535	-70.297882
703.873757	-70.300413
704.039056	-70.331473
704.204433	-70.390191
704.369887	-70.475539
704.535420	-70.586387
704.701030	-70.721553
704.866718	-70.879869
705.032484	-71.060176
705.198328	-71.261324
705.364250	-71.482227
705.530250	-71.721818
705.696328	-71.978928
705.862485	-72.252262
706.028720	-72.540363
706.195033	-72.841610
706.361424	-73.154336
706.527894	-73.477178
706.694442	-73.809626
706.861069	-74.152533
707.027775	-74.508458
707.194559	-74.881702
707.361422	-75.278139
707.528363	-75.704700
707.695384	-76.168492
707.862483	-76.675412
708.029661	-77.228775
708.196918	-77.827448
708.364254	-78.462688
708.531670	-79.113161
708.699164	-79.737765
708.866738	-80.268526
709.034391	-80.612383
709.202123	-80.674627
709.369935	-80.404586
709.537826	-79.828933
709.705796	-79.036060
709.873847	-78.129050
710.041976	-77.190595
710.210186	-76.273932
710.378475	-75.408282
710.546844	-74.606965
710.715292	-73.874112
710.883821	-73.208988
711.052429	-72.608537
711.221118	-72.068887
711.389887	-71.586178
711.558735	-71.156863
711.727664	-70.777747
711.896673	-70.445779
712.065763	-70.157864
712.234932	-69.910684
712.404183	-69.700508
712.573513	-69.523110
712.742924	-69.373686
712.912416	-69.246904
713.081988	-69.137076
713.251641	-69.038437
713.421375	-68.945553
713.591190	-68.853715
713.761085	-68.759378
713.931061	-68.660382
714.101119	-68.555970
714.271257	-68.446690
714.441476	-68.334068
714.611777	-68.220103
714.782159	-68.106864
714.952622	-67.996203
715.123166	-67.889744
715.293792	-67.788906
715.464499	-67.695132
715.635288	-67.610169
715.806158	-67.536284
715.977110	-67.476235
716.148143	-67.433246
716.319259	-67.410773
716.490456	-67.412194
716.661735	-67.440591
716.833096	-67.498441
717.004538	-67.587548
717.176063	-67.709013
717.347670	-67.863333
717.519359	-68.050558
717.691130	-68.270430
717.862984	-68.522622
718.034920	-68.806886
718.206938	-69.123224
718.379039	-69.471895
718.551222	-69.853316
718.723488	-70.267857
718.895836	-70.715565
719.068267	-71.195597
719.240781	-71.705737
719.413377	-72.241713
719.586057	-72.796640
719.758819	-73.360300
719.931664	-73.918577
720.104593	-74.453613
720.277604	-74.944362
720.450699	-75.367834
720.623876	-75.701166
720.797137	-75.924155
720.970482	-76.022045
721.143910	-75.988025
721.317421	-75.824175
721.491016	-75.541035
721.664694	-75.155592
721.838456	-74.688655
722.012302	-74.162056
722.186231	-73.596471
722.360244	-73.010163
722.534342	-72.418491
722.708523	-71.834068
722.882788	-71.267072
723.057137	-70.725728
723.231570	-70.216822
723.406088	-69.745982
723.580689	-69.317737
723.755375	-68.935677
723.930146	-68.602514
724.105000	-68.320099
724.279940	-68.089390
724.454963	-67.910531
724.630072	-67.782897
724.805265	-67.705178
724.980543	-67.675422
725.155905	-67.691178
725.331353	-67.749646
725.506885	-67.847772
725.682503	-67.982426
725.858205	-68.150527
726.033993	-68.349007
726.209865	-68.574599
726.385823	-68.823573
726.561866	-69.091218
726.737995	-69.371337
726.914209	-69.655706
727.090508	-69.933811
727.266893	-70.193046
727.443364	-70.419973
727.619920	-70.602117
727.796562	-70.730359
727.973290	-70.800992
