# 2022-03-21_11.58.21
# shape = sech2
# FWHM_ps = 0.1
# carrier_nm = 1542
# frep_MHz = 12126
# pow_mW = 8000
# GDD = 0.0
# propa_len = 0.1
# untap_len = 0.01
# taper_len = 0.06
# waist_len = 0.02
# uptap_len = 0.02
# untap_scale = 1.0
# waist_scale = 0.3
# workingDir = NL_20110305_12 (Spirou)
# axis = slow
# window_ps = 10.0
# steps = 200
# points = 13000
# 
# wavelength [nm]	 power spectral density [dB]
1000.248639	-21.636094
1000.582480	-21.532324
1000.916545	-21.431399
1001.250832	-21.330689
1001.585343	-21.230456
1001.920077	-21.130967
1002.255035	-21.032513
1002.590218	-20.935359
1002.925624	-20.839668
1003.261255	-20.745521
1003.597111	-20.653005
1003.933192	-20.562244
1004.269497	-20.473334
1004.606029	-20.386274
1004.942785	-20.300968
1005.279768	-20.217288
1005.616977	-20.135115
1005.954412	-20.054311
1006.292074	-19.974703
1006.629962	-19.896116
1006.968077	-19.818393
1007.306420	-19.741353
1007.644990	-19.664800
1007.983787	-19.588595
1008.322813	-19.512692
1008.662067	-19.437101
1009.001549	-19.361821
1009.341259	-19.286846
1009.681199	-19.212235
1010.021367	-19.138107
1010.361765	-19.064586
1010.702392	-18.991786
1011.043250	-18.919817
1011.384337	-18.848775
1011.725654	-18.778722
1012.067202	-18.709693
1012.408980	-18.641713
1012.750989	-18.574781
1013.093230	-18.508819
1013.435702	-18.443681
1013.778405	-18.379225
1014.121341	-18.315308
1014.464508	-18.251751
1014.807908	-18.188367
1015.151540	-18.125012
1015.495405	-18.061605
1015.839503	-17.998094
1016.183835	-17.934450
1016.528400	-17.870734
1016.873198	-17.807111
1017.218231	-17.743794
1017.563498	-17.681006
1017.908999	-17.619015
1018.254735	-17.558139
1018.600707	-17.498679
1018.946913	-17.440887
1019.293354	-17.384981
1019.640032	-17.331178
1019.986945	-17.279610
1020.334094	-17.230273
1020.681480	-17.183093
1021.029102	-17.137966
1021.376961	-17.094722
1021.725058	-17.053110
1022.073391	-17.012848
1022.421962	-16.973648
1022.770772	-16.935240
1023.119819	-16.897378
1023.469104	-16.859880
1023.818628	-16.822642
1024.168391	-16.785597
1024.518393	-16.748735
1024.868634	-16.712162
1025.219115	-16.676058
1025.569836	-16.640607
1025.920796	-16.605965
1026.271997	-16.572281
1026.623438	-16.539695
1026.975121	-16.508287
1027.327044	-16.478048
1027.679208	-16.448914
1028.031614	-16.420762
1028.384262	-16.393373
1028.737152	-16.366455
1029.090284	-16.339708
1029.443659	-16.312840
1029.797276	-16.285563
1030.151137	-16.257636
1030.505240	-16.228905
1030.859587	-16.199292
1031.214178	-16.168792
1031.569013	-16.137500
1031.924093	-16.105637
1032.279417	-16.073505
1032.634985	-16.041440
1032.990799	-16.009800
1033.346858	-15.978931
1033.703162	-15.949119
1034.059712	-15.920573
1034.416509	-15.893397
1034.773551	-15.867584
1035.130841	-15.843026
1035.488377	-15.819548
1035.846160	-15.796943
1036.204190	-15.774986
1036.562468	-15.753445
1036.920994	-15.732134
1037.279768	-15.710952
1037.638790	-15.689895
1037.998061	-15.669041
1038.357581	-15.648526
1038.717350	-15.628526
1039.077368	-15.609239
1039.437636	-15.590897
1039.798154	-15.573753
1040.158922	-15.558020
1040.519940	-15.543833
1040.881209	-15.531260
1041.242729	-15.520309
1041.604501	-15.510892
1041.966524	-15.502802
1042.328798	-15.495759
1042.691325	-15.489432
1043.054103	-15.483472
1043.417135	-15.477529
1043.780419	-15.471313
1044.143956	-15.464619
1044.507746	-15.457336
1044.871791	-15.449477
1045.236088	-15.441182
1045.600641	-15.432679
1045.965447	-15.424224
1046.330508	-15.416082
1046.695824	-15.408495
1047.061395	-15.401626
1047.427222	-15.395536
1047.793304	-15.390209
1048.159642	-15.385521
1048.526237	-15.381263
1048.893088	-15.377195
1049.260196	-15.373072
1049.627561	-15.368692
1049.995183	-15.363896
1050.363063	-15.358568
1050.731201	-15.352681
1051.099597	-15.346335
1051.468251	-15.339763
1051.837164	-15.333265
1052.206336	-15.327191
1052.575767	-15.321944
1052.945458	-15.317928
1053.315409	-15.315498
1053.685619	-15.314914
1054.056090	-15.316279
1054.426821	-15.319497
1054.797814	-15.324323
1055.169067	-15.330414
1055.540582	-15.337325
1055.912359	-15.344585
1056.284398	-15.351862
1056.656698	-15.359014
1057.029262	-15.366063
1057.402088	-15.373231
1057.775177	-15.380894
1058.148530	-15.389461
1058.522146	-15.399340
1058.896027	-15.410872
1059.270171	-15.424191
1059.644580	-15.439176
1060.019254	-15.455548
1060.394193	-15.472898
1060.769397	-15.490724
1061.144867	-15.508518
1061.520602	-15.525809
1061.896604	-15.542227
1062.272872	-15.557563
1062.649407	-15.571757
1063.026210	-15.584854
1063.403279	-15.597012
1063.780616	-15.608486
1064.158221	-15.619555
1064.536094	-15.630523
1064.914235	-15.641708
1065.292645	-15.653329
1065.671325	-15.665499
1066.050273	-15.678237
1066.429491	-15.691414
1066.808979	-15.704735
1067.188738	-15.717854
1067.568766	-15.730449
1067.949066	-15.742271
1068.329636	-15.753217
1068.710478	-15.763318
1069.091592	-15.772780
1069.472977	-15.782016
1069.854635	-15.791552
1070.236565	-15.801895
1070.618768	-15.813494
1071.001243	-15.826666
1071.383993	-15.841538
1071.767016	-15.858062
1072.150313	-15.875979
1072.533884	-15.894881
1072.917730	-15.914361
1073.301850	-15.934069
1073.686246	-15.953754
1074.070917	-15.973377
1074.455864	-15.993133
1074.841087	-16.013376
1075.226586	-16.034491
1075.612362	-16.056802
1075.998415	-16.080451
1076.384745	-16.105366
1076.771353	-16.131223
1077.158238	-16.157492
1077.545401	-16.183580
1077.932843	-16.208934
1078.320564	-16.233173
1078.708564	-16.256184
1079.096842	-16.278073
1079.485401	-16.299065
1079.874240	-16.319460
1080.263358	-16.339493
1080.652757	-16.359267
1081.042438	-16.378824
1081.432399	-16.398189
1081.822641	-16.417443
1082.213166	-16.436795
1082.603972	-16.456537
1082.995061	-16.476979
1083.386433	-16.498365
1083.778087	-16.520753
1084.170025	-16.543996
1084.562246	-16.567783
1084.954751	-16.591736
1085.347541	-16.615587
1085.740615	-16.639269
1086.133973	-16.662978
1086.527617	-16.687069
1086.921546	-16.711961
1087.315761	-16.738013
1087.710262	-16.765404
1088.105050	-16.794072
1088.500124	-16.823812
1088.895485	-16.854427
1089.291134	-16.885843
1089.687070	-16.918103
1090.083294	-16.951341
1090.479806	-16.985761
1090.876607	-17.021540
1091.273696	-17.058674
1091.671075	-17.097011
1092.068744	-17.136369
1092.466702	-17.176577
1092.864950	-17.217597
1093.263489	-17.259502
1093.662319	-17.302401
1094.061440	-17.346281
1094.460852	-17.390791
1094.860555	-17.435217
1095.260551	-17.478655
1095.660840	-17.520226
1096.061421	-17.559396
1096.462295	-17.596119
1096.863462	-17.630856
1097.264923	-17.664406
1097.666678	-17.697439
1098.068727	-17.730163
1098.471071	-17.762244
1098.873710	-17.792927
1099.276644	-17.821463
1099.679874	-17.847542
1100.083400	-17.871707
1100.487222	-17.895435
1100.891340	-17.920646
1101.295756	-17.949075
1101.700468	-17.981640
1102.105478	-18.017973
1102.510787	-18.056523
1102.916393	-18.095145
1103.322298	-18.132011
1103.728502	-18.166470
1104.135005	-18.199380
1104.541807	-18.232876
1104.948909	-18.269486
1105.356312	-18.310958
1105.764015	-18.357326
1106.172019	-18.406616
1106.580324	-18.455384
1106.988931	-18.499900
1107.397840	-18.537466
1107.807051	-18.567510
1108.216564	-18.591721
1108.626380	-18.613391
1109.036500	-18.636073
1109.446923	-18.662122
1109.857649	-18.691950
1110.268680	-18.723942
1110.680016	-18.755258
1111.091657	-18.783188
1111.503602	-18.806282
1111.915854	-18.825134
1112.328411	-18.842155
1112.741275	-18.860700
1113.154445	-18.883957
1113.567922	-18.913899
1113.981706	-18.950853
1114.395798	-18.993761
1114.810198	-19.040613
1115.224906	-19.089335
1115.639923	-19.138315
1116.055249	-19.186781
1116.470884	-19.234871
1116.886829	-19.283276
1117.303084	-19.333063
1117.719650	-19.385262
1118.136526	-19.440514
1118.553713	-19.498751
1118.971212	-19.558816
1119.389022	-19.618609
1119.807145	-19.675250
1120.225580	-19.725805
1120.644328	-19.768227
1121.063389	-19.802108
1121.482763	-19.829107
1121.902452	-19.852367
1122.322454	-19.875484
1122.742771	-19.901089
1123.163404	-19.929632
1123.584351	-19.959339
1124.005614	-19.986834
1124.427193	-20.008806
1124.849089	-20.023768
1125.271301	-20.032986
1125.693830	-20.040419
1126.116677	-20.051195
1126.539842	-20.069871
1126.963324	-20.098628
1127.387126	-20.136518
1127.811246	-20.180227
1128.235685	-20.225417
1128.660444	-20.268893
1129.085522	-20.309943
1129.510922	-20.350619
1129.936641	-20.394639
1130.362682	-20.445533
1130.789044	-20.505053
1131.215728	-20.572148
1131.642734	-20.643434
1132.070063	-20.714438
1132.497714	-20.781468
1132.925689	-20.842971
1133.353987	-20.899657
1133.782610	-20.953755
1134.211556	-21.007306
1134.640827	-21.060953
1135.070424	-21.113489
1135.500345	-21.162243
1135.930593	-21.204439
1136.361166	-21.238412
1136.792067	-21.264415
1137.223294	-21.284239
1137.654848	-21.300086
1138.086730	-21.313590
1138.518940	-21.324939
1138.951479	-21.333212
1139.384346	-21.337297
1139.817543	-21.336816
1140.251069	-21.332761
1140.684925	-21.327323
1141.119111	-21.322993
1141.553628	-21.321507
1141.988475	-21.323313
1142.423655	-21.327591
1142.859166	-21.332860
1143.295009	-21.338160
1143.731185	-21.343771
1144.167694	-21.351284
1144.604536	-21.362895
1145.041711	-21.380359
1145.479221	-21.404045
1145.917065	-21.432746
1146.355245	-21.464290
1146.793759	-21.496570
1147.232609	-21.528581
1147.671795	-21.560712
1148.111317	-21.594590
1148.551177	-21.631730
1148.991373	-21.672692
1149.431907	-21.716509
1149.872779	-21.760953
1150.313989	-21.803441
1150.755538	-21.842388
1151.197426	-21.877542
1151.639653	-21.909883
1152.082220	-21.941035
1152.525128	-21.971998
1152.968376	-22.002553
1153.411966	-22.031090
1153.855897	-22.055463
1154.300169	-22.074040
1154.744784	-22.086670
1155.189742	-22.094548
1155.635042	-22.099651
1156.080687	-22.103624
1156.526674	-22.106997
1156.973007	-22.109067
1157.419683	-22.108401
1157.866705	-22.103792
1158.314072	-22.094913
1158.761786	-22.082811
1159.209845	-22.069370
1159.658251	-22.056514
1160.107004	-22.045330
1160.556104	-22.035733
1161.005553	-22.026642
1161.455349	-22.016833
1161.905494	-22.005530
1162.355989	-21.993008
1162.806832	-21.980532
1163.258026	-21.969734
1163.709570	-21.961766
1164.161464	-21.956927
1164.613710	-21.954395
1165.066307	-21.952875
1165.519256	-21.951360
1165.972558	-21.949408
1166.426212	-21.947508
1166.880219	-21.946671
1167.334580	-21.947829
1167.789295	-21.951420
1168.244364	-21.957165
1168.699788	-21.963957
1169.155567	-21.970664
1169.611702	-21.976601
1170.068193	-21.981685
1170.525041	-21.986347
1170.982245	-21.991261
1171.439807	-21.996793
1171.897726	-22.002997
1172.356004	-22.009398
1172.814640	-22.015184
1173.273635	-22.019535
1173.732989	-22.022034
1174.192703	-22.022646
1174.652778	-22.021721
1175.113213	-22.019660
1175.574009	-22.016692
1176.035167	-22.012872
1176.496687	-22.007901
1176.958569	-22.001187
1177.420814	-21.992063
1177.883422	-21.980109
1178.346394	-21.965263
1178.809730	-21.947904
1179.273430	-21.928674
1179.737496	-21.908117
1180.201927	-21.886281
1180.666723	-21.862759
1181.131886	-21.836691
1181.597416	-21.807370
1182.063312	-21.774478
1182.529576	-21.738424
1182.996209	-21.700161
1183.463209	-21.660670
1183.930579	-21.620310
1184.398317	-21.578604
1184.866426	-21.534423
1185.334904	-21.486812
1185.803754	-21.435562
1186.272974	-21.381445
1186.742566	-21.325722
1187.212529	-21.269448
1187.682865	-21.212851
1188.153574	-21.155096
1188.624656	-21.094966
1189.096112	-21.031657
1189.567942	-20.965435
1190.040147	-20.897443
1190.512726	-20.829051
1190.985681	-20.761071
1191.459012	-20.693187
1191.932720	-20.624128
1192.406804	-20.552784
1192.881265	-20.478844
1193.356104	-20.403306
1193.831322	-20.327747
1194.306918	-20.253335
1194.782893	-20.179995
1195.259248	-20.106593
1195.735982	-20.031713
1196.213097	-19.954726
1196.690593	-19.876378
1197.168471	-19.798305
1197.646730	-19.722015
1198.125371	-19.647841
1198.604395	-19.574587
1199.083803	-19.500556
1199.563594	-19.424638
1200.043769	-19.347417
1200.524329	-19.270650
1201.005273	-19.196040
1201.486604	-19.124169
1201.968320	-19.053933
1202.450422	-18.983335
1202.932912	-18.910980
1203.415789	-18.837166
1203.899054	-18.763635
1204.382707	-18.692369
1204.866748	-18.624029
1205.351179	-18.557566
1205.836000	-18.490878
1206.321211	-18.422324
1206.806812	-18.352010
1207.292805	-18.281660
1207.779189	-18.213394
1208.265965	-18.147960
1208.753134	-18.084245
1209.240696	-18.019989
1209.728651	-17.953520
1210.217000	-17.885000
1210.705744	-17.816281
1211.194883	-17.749441
1211.684417	-17.685115
1212.174347	-17.621936
1212.664673	-17.557648
1213.155396	-17.490719
1213.646516	-17.421627
1214.138034	-17.352418
1214.629951	-17.285044
1215.122266	-17.219753
1215.614980	-17.154885
1216.108095	-17.088117
1216.601609	-17.018401
1217.095524	-16.946732
1217.589841	-16.875372
1218.084559	-16.805927
1218.579679	-16.738025
1219.075202	-16.669678
1219.571128	-16.598852
1220.067458	-16.525162
1220.564191	-16.450209
1221.061330	-16.376213
1221.558874	-16.304220
1222.056823	-16.233192
1222.555178	-16.160891
1223.053940	-16.085875
1223.553109	-16.008684
1224.052686	-15.931419
1224.552671	-15.855918
1225.053065	-15.782316
1225.553867	-15.708924
1226.055079	-15.633807
1226.556702	-15.556423
1227.058735	-15.478220
1227.561179	-15.401325
1228.064035	-15.326775
1228.567303	-15.253668
1229.070983	-15.180025
1229.575077	-15.104662
1230.079585	-15.028228
1230.584506	-14.952706
1231.089842	-14.879598
1231.595594	-14.808707
1232.101761	-14.738358
1232.608345	-14.666971
1233.115345	-14.594605
1233.622762	-14.522815
1234.130597	-14.453395
1234.638851	-14.386642
1235.147523	-14.321227
1235.656615	-14.255414
1236.166126	-14.188734
1236.676058	-14.122441
1237.186411	-14.058367
1237.697185	-13.997217
1238.208381	-13.937907
1238.719999	-13.878670
1239.232040	-13.818707
1239.744505	-13.758926
1240.257394	-13.701143
1240.770708	-13.646362
1241.284446	-13.593792
1241.798610	-13.541609
1242.313201	-13.488695
1242.828218	-13.435751
1243.343662	-13.384564
1243.859534	-13.336306
1244.375834	-13.290372
1244.892563	-13.244968
1245.409721	-13.198799
1245.927309	-13.152330
1246.445327	-13.107307
1246.963777	-13.064994
1247.482657	-13.024925
1248.001970	-12.985319
1248.521716	-12.944818
1249.041894	-12.903754
1249.562506	-12.863837
1250.083553	-12.826319
1250.605034	-12.790766
1251.126950	-12.755439
1251.649302	-12.718993
1252.172091	-12.681812
1252.695316	-12.645526
1253.218979	-12.611330
1253.743079	-12.578731
1254.267619	-12.546016
1254.792597	-12.511956
1255.318015	-12.477110
1255.843874	-12.443099
1256.370173	-12.410917
1256.896913	-12.379902
1257.424095	-12.348420
1257.951720	-12.315545
1258.479787	-12.281977
1259.008298	-12.249334
1259.537254	-12.218378
1260.066654	-12.188144
1260.596499	-12.157107
1261.126790	-12.124750
1261.657527	-12.092107
1262.188711	-12.060626
1262.720342	-12.030670
1263.252422	-12.001008
1263.784950	-11.970357
1264.317928	-11.938658
1264.851355	-11.907297
1265.385232	-11.877461
1265.919560	-11.848959
1266.454340	-11.820384
1266.989572	-11.790770
1267.525256	-11.760685
1268.061394	-11.731676
1268.597985	-11.704532
1269.135031	-11.678462
1269.672531	-11.652014
1270.210487	-11.624735
1270.748899	-11.597784
1271.287768	-11.572646
1271.827094	-11.549520
1272.366877	-11.527062
1272.907119	-11.504060
1273.447820	-11.480718
1273.988981	-11.458574
1274.530601	-11.438725
1275.072683	-11.420666
1275.615226	-11.402813
1276.158230	-11.384438
1276.701697	-11.366434
1277.245627	-11.350386
1277.790021	-11.336673
1278.334879	-11.324126
1278.880202	-11.311325
1279.425991	-11.298313
1279.972245	-11.286461
1280.518966	-11.276895
1281.066155	-11.269146
1281.613811	-11.261708
1282.161936	-11.253793
1282.710529	-11.246277
1283.259593	-11.240538
1283.809126	-11.236799
1284.359131	-11.233870
1284.909607	-11.230495
1285.460555	-11.226848
1286.011976	-11.224270
1286.563870	-11.223536
1287.116237	-11.223892
1287.669080	-11.223915
1288.222397	-11.223201
1288.776191	-11.222780
1289.330460	-11.223797
1289.885207	-11.225969
1290.440431	-11.227941
1290.996133	-11.228872
1291.552314	-11.229421
1292.108975	-11.230831
1292.666115	-11.233337
1293.223737	-11.235754
1293.781839	-11.236951
1294.340424	-11.237254
1294.899491	-11.237906
1295.459041	-11.239512
1296.019075	-11.241166
1296.579593	-11.241620
1297.140597	-11.240806
1297.702086	-11.239964
1298.264061	-11.239950
1298.826524	-11.240172
1299.389474	-11.239347
1299.952912	-11.237135
1300.516839	-11.234639
1301.081255	-11.232956
1301.646162	-11.231748
1302.211559	-11.229784
1302.777448	-11.226515
1303.343829	-11.222910
1303.910702	-11.220168
1304.478069	-11.218193
1305.045930	-11.215798
1305.614285	-11.212346
1306.183136	-11.208656
1306.752483	-11.205967
1307.322326	-11.204323
1307.892666	-11.202607
1308.463504	-11.200131
1309.034841	-11.197644
1309.606677	-11.196347
1310.179012	-11.196319
1310.751849	-11.196506
1311.325186	-11.196233
1311.899025	-11.196219
1312.473366	-11.197584
1313.048211	-11.200407
1313.623559	-11.203586
1314.199412	-11.206507
1314.775770	-11.209927
1315.352634	-11.214878
1315.930004	-11.221272
1316.507881	-11.227992
1317.086266	-11.234483
1317.665159	-11.241542
1318.244562	-11.250157
1318.824474	-11.259984
1319.404897	-11.269832
1319.985831	-11.279323
1320.567276	-11.289314
1321.149234	-11.300624
1321.731706	-11.312703
1322.314691	-11.324287
1322.898190	-11.335187
1323.482205	-11.346378
1324.066736	-11.358461
1324.651783	-11.370587
1325.237347	-11.381527
1325.823430	-11.391356
1326.410031	-11.401155
1326.997151	-11.411268
1327.584791	-11.420538
1328.172952	-11.427882
1328.761634	-11.433726
1329.350839	-11.439176
1329.940566	-11.444276
1330.530817	-11.447696
1331.121592	-11.448665
1331.712891	-11.447977
1332.304716	-11.446733
1332.897068	-11.444582
1333.489946	-11.440224
1334.083352	-11.433379
1334.677287	-11.425183
1335.271750	-11.416543
1335.866744	-11.406767
1336.462268	-11.394763
1337.058323	-11.380886
1337.654910	-11.366469
1338.252029	-11.352000
1338.849682	-11.336546
1339.447869	-11.319466
1340.046591	-11.301669
1340.645848	-11.284409
1341.245641	-11.267573
1341.845972	-11.250158
1342.446840	-11.232153
1343.048246	-11.214817
1343.650191	-11.198915
1344.252677	-11.183739
1344.855702	-11.168470
1345.459269	-11.153746
1346.063379	-11.140792
1346.668030	-11.129571
1347.273226	-11.118955
1347.878965	-11.108671
1348.485250	-11.099759
1349.092080	-11.092894
1349.699456	-11.087238
1350.307380	-11.081688
1350.915851	-11.076624
1351.524871	-11.073080
1352.134441	-11.070828
1352.744560	-11.068553
1353.355231	-11.065737
1353.966453	-11.063255
1354.578227	-11.061625
1355.190555	-11.059813
1355.803436	-11.056662
1356.416872	-11.052535
1357.030863	-11.048418
1357.645411	-11.044012
1358.260515	-11.038013
1358.876177	-11.030167
1359.492397	-11.021526
1360.109176	-11.012630
1360.726516	-11.002549
1361.344416	-10.990553
1361.962877	-10.977475
1362.581901	-10.964461
1363.201487	-10.951242
1363.821637	-10.936968
1364.442352	-10.922031
1365.063632	-10.907796
1365.685478	-10.894705
1366.307891	-10.881950
1366.930871	-10.869443
1367.554420	-10.858370
1368.178538	-10.849576
1368.803226	-10.842497
1369.428485	-10.836569
1370.054315	-10.832547
1370.680717	-10.831386
1371.307693	-10.832708
1371.935242	-10.835611
1372.563366	-10.840286
1373.192065	-10.847548
1373.821341	-10.857174
1374.451193	-10.867999
1375.081623	-10.879699
1375.712632	-10.892903
1376.344221	-10.907503
1376.976389	-10.922296
1377.609139	-10.936561
1378.242470	-10.950741
1378.876384	-10.964948
1379.510881	-10.978113
1380.145963	-10.989351
1380.781629	-10.999084
1381.417881	-11.007725
1382.054720	-11.014562
1382.692147	-11.018807
1383.330161	-11.020956
1383.968765	-11.021871
1384.607959	-11.021299
1385.247743	-11.018638
1385.888119	-11.014499
1386.529087	-11.010058
1387.170648	-11.005452
1387.812804	-11.000211
1388.455554	-10.994865
1389.098899	-10.990639
1389.742842	-10.987762
1390.387381	-10.985647
1391.032519	-10.984471
1391.678256	-10.985201
1392.324592	-10.987866
1392.971529	-10.991562
1393.619068	-10.996017
1394.267208	-11.001821
1394.915952	-11.008792
1395.565300	-11.015769
1396.215253	-11.022157
