# 2022-03-21_17.44.13
# shape = sech2
# FWHM_ps = 0.1
# carrier_nm = 1542
# frep_MHz = 12126
# pow_mW = 8000
# GDD = 0.0
# propa_len = 0.13666666666666666
# untap_len = 0.01
# taper_len = 0.07666666666666666
# waist_len = 0.02
# uptap_len = 0.02
# untap_scale = 1.0
# waist_scale = 0.35
# workingDir = NL_20110305_12 (Spirou)
# axis = slow
# window_ps = 10.0
# steps = 200
# points = 21700
# 
# wavelength [nm]	 power spectral density [dB]
600.043425	-142.821390
600.163550	-142.632268
600.283723	-142.293729
600.403943	-141.790535
600.524212	-141.109947
600.644529	-140.260339
600.764895	-139.282465
600.885308	-138.238860
601.005770	-137.192422
601.126280	-136.189643
601.246839	-135.254552
601.367446	-134.391389
601.488101	-133.590607
601.608804	-132.835710
601.729557	-132.110233
601.850357	-131.403940
601.971206	-130.716369
602.092104	-130.056734
602.213050	-129.441214
602.334045	-128.888884
602.455089	-128.417745
602.576181	-128.042149
602.697322	-127.771790
602.818511	-127.611477
602.939749	-127.561388
603.061036	-127.617604
603.182372	-127.773080
603.303757	-128.019265
603.425191	-128.348125
603.546673	-128.754672
603.668204	-129.239470
603.789785	-129.810048
603.911414	-130.481017
604.033092	-131.272239
604.154820	-132.205200
604.276596	-133.297623
604.398422	-134.554585
604.520297	-135.954432
604.642220	-137.428564
604.764193	-138.845833
604.886216	-140.040765
605.008287	-140.916123
605.130408	-141.532045
605.252578	-142.048850
605.374798	-142.587183
605.497066	-143.133618
605.619385	-143.517463
605.741752	-143.505086
605.864169	-143.031787
605.986636	-142.297727
606.109152	-141.580323
606.231718	-141.072347
606.354333	-140.872949
606.476998	-141.027821
606.599712	-141.559107
606.722476	-142.479441
606.845290	-143.794198
606.968154	-145.493225
607.091067	-147.532981
607.214030	-149.826189
607.337043	-152.285361
607.460106	-154.805529
607.583219	-156.218621
607.706381	-153.839623
607.829594	-149.707736
607.952856	-146.061151
608.076169	-143.147328
608.199531	-140.854989
608.322944	-139.070674
608.446407	-137.708374
608.569920	-136.701601
608.693483	-135.992870
608.817096	-135.524701
608.940759	-135.232753
609.064473	-135.043400
609.188237	-134.879800
609.312051	-134.679368
609.435916	-134.415334
609.559831	-134.105132
609.683796	-133.797543
609.807812	-133.548462
609.931878	-133.401505
610.055995	-133.378406
610.180162	-133.475599
610.304380	-133.664000
610.428648	-133.892279
610.552967	-134.098704
610.677337	-134.233828
610.801757	-134.285866
610.926228	-134.290527
611.050750	-134.315602
611.175323	-134.435606
611.299946	-134.713434
611.424620	-135.191536
611.549345	-135.884611
611.674121	-136.764448
611.798948	-137.729304
611.923826	-138.567863
612.048755	-139.001948
612.173734	-138.891968
612.298765	-138.384426
612.423847	-137.754437
612.548980	-137.207152
612.674165	-136.842232
612.799400	-136.692036
612.924687	-136.754982
613.050025	-137.013963
613.175414	-137.445331
613.300854	-138.022901
613.426346	-138.721417
613.551889	-139.521705
613.677484	-140.418614
613.803130	-141.433087
613.928827	-142.628633
614.054576	-144.135562
614.180377	-146.203195
614.306229	-149.344278
614.432132	-154.606252
614.558087	-156.372884
614.684094	-149.394918
614.810153	-144.674769
614.936263	-141.434461
615.062425	-139.046695
615.188639	-137.231367
615.314904	-135.844397
615.441222	-134.800657
615.567591	-134.043388
615.694012	-133.530121
615.820486	-133.224694
615.947011	-133.092644
616.073588	-133.099419
616.200217	-133.212030
616.326898	-133.403083
616.453632	-133.656455
616.580417	-133.973819
616.707255	-134.378421
616.834144	-134.914497
616.961086	-135.645028
617.088081	-136.653142
617.215127	-138.053246
617.342226	-140.023814
617.469378	-142.900368
617.596581	-147.488964
617.723837	-155.812183
617.851146	-152.221114
617.978507	-146.008886
618.105920	-142.621388
618.233386	-140.506389
618.360905	-139.096458
618.488476	-138.111461
618.616100	-137.369183
618.743777	-136.725845
618.871506	-136.061740
618.999288	-135.288719
619.127123	-134.362808
619.255011	-133.288290
619.382951	-132.107053
619.510945	-130.877957
619.638991	-129.658112
619.767090	-128.492561
619.895243	-127.410654
620.023448	-126.426468
620.151706	-125.541022
620.280017	-124.745285
620.408382	-124.023703
620.536799	-123.358308
620.665270	-122.733563
620.793794	-122.140814
620.922371	-121.580613
621.051002	-121.062181
621.179686	-120.600372
621.308423	-120.211571
621.437213	-119.910087
621.566057	-119.705711
621.694954	-119.602683
621.823905	-119.599901
621.952909	-119.691967
622.081967	-119.871179
622.211079	-120.130284
622.340244	-120.465285
622.469462	-120.877430
622.598735	-121.373290
622.728061	-121.961843
622.857441	-122.648116
622.986874	-123.422548
623.116361	-124.245774
623.245903	-125.033671
623.375498	-125.659840
623.505147	-126.003386
623.634850	-126.031157
623.764606	-125.827887
623.894417	-125.533985
624.024282	-125.269549
624.154201	-125.106244
624.284174	-125.074324
624.414202	-125.178675
624.544283	-125.413536
624.674419	-125.774211
624.804609	-126.265291
624.934853	-126.903569
625.065151	-127.713038
625.195504	-128.706270
625.325911	-129.836655
625.456373	-130.897789
625.586889	-131.433763
625.717460	-131.015499
625.848085	-129.798753
625.978764	-128.300080
626.109498	-126.862306
626.240287	-125.602535
626.371131	-124.529039
626.502029	-123.613137
626.632982	-122.819666
626.763989	-122.119416
626.895052	-121.493599
627.026169	-120.933968
627.157341	-120.440067
627.288568	-120.015292
627.419850	-119.663368
627.551187	-119.385947
627.682579	-119.181802
627.814026	-119.047376
627.945528	-118.977917
628.077085	-118.968932
628.208697	-119.017477
628.340364	-119.122743
628.472087	-119.285877
628.603865	-119.509042
628.735698	-119.793718
628.867586	-120.139182
628.999530	-120.541700
629.131529	-120.994560
629.263584	-121.489911
629.395694	-122.022645
629.527859	-122.595348
629.660080	-123.223392
629.792357	-123.938502
629.924689	-124.789492
630.057077	-125.841285
630.189520	-127.173165
630.322019	-128.870689
630.454574	-130.979375
630.587184	-133.271910
630.719851	-134.626438
630.852573	-133.812375
630.985351	-131.923230
631.118185	-130.211926
631.251075	-128.991348
631.384021	-128.259620
631.517023	-127.967747
631.650081	-128.074008
631.783195	-128.551781
631.916365	-129.388392
632.049592	-130.578600
632.182874	-132.093253
632.316213	-133.741873
632.449608	-134.801981
632.583059	-134.160916
632.716567	-132.074154
632.850131	-129.692682
632.983751	-127.554745
633.117428	-125.766121
633.251161	-124.312095
633.384951	-123.155189
633.518797	-122.256783
633.652700	-121.580486
633.786660	-121.092251
633.920676	-120.760691
634.054749	-120.558294
634.188879	-120.463096
634.323065	-120.459378
634.457308	-120.536105
634.591608	-120.682208
634.725965	-120.879621
634.860379	-121.096115
634.994850	-121.282309
635.129377	-121.379974
635.263962	-121.343721
635.398604	-121.165692
635.533303	-120.881707
635.668058	-120.552238
635.802872	-120.235079
635.937742	-119.966803
636.072669	-119.757696
636.207654	-119.595653
636.342696	-119.455476
636.477796	-119.312046
636.612953	-119.153879
636.748167	-118.991253
636.883439	-118.854773
637.018768	-118.786667
637.154155	-118.830999
637.289599	-119.027326
637.425101	-119.408654
637.560660	-120.002342
637.696277	-120.832094
637.831952	-121.919551
637.967685	-123.284267
638.103475	-124.937943
638.239324	-126.858836
638.375230	-128.905706
638.511194	-130.615218
638.647215	-131.173505
638.783295	-130.336113
638.919433	-128.806279
639.055629	-127.192859
639.191883	-125.717363
639.328195	-124.427720
639.464565	-123.323446
639.600994	-122.393963
639.737481	-121.627195
639.874025	-121.010630
640.010629	-120.530888
640.147290	-120.172701
640.284010	-119.918288
640.420789	-119.747365
640.557625	-119.637311
640.694521	-119.564145
640.831474	-119.505340
640.968487	-119.443734
641.105558	-119.370842
641.242687	-119.288094
641.379876	-119.204443
641.517123	-119.131507
641.654429	-119.077913
641.791793	-119.043445
641.929216	-119.015252
642.066699	-118.968107
642.204240	-118.870255
642.341840	-118.694937
642.479499	-118.434064
642.617217	-118.106278
642.754994	-117.753653
642.892830	-117.430082
643.030726	-117.189485
643.168680	-117.078830
643.306694	-117.136245
643.444767	-117.391640
643.582899	-117.866806
643.721091	-118.572136
643.859342	-119.495303
643.997652	-120.573414
644.136022	-121.643289
644.274451	-122.411420
644.412940	-122.585109
644.551488	-122.154712
644.690096	-121.398575
644.828763	-120.601418
644.967490	-119.918000
645.106277	-119.402601
645.245124	-119.060822
645.384030	-118.880102
645.522997	-118.844243
645.662023	-118.939579
645.801109	-119.156143
645.940255	-119.485594
646.079460	-119.917169
646.218726	-120.432531
646.358052	-121.000317
646.497438	-121.572104
646.636884	-122.082908
646.776391	-122.458978
646.915957	-122.632533
647.055584	-122.559290
647.195271	-122.232061
647.335019	-121.683297
647.474826	-120.975229
647.614695	-120.182288
647.754623	-119.373156
647.894612	-118.598940
648.034662	-117.889011
648.174772	-117.252523
648.314943	-116.683498
648.455174	-116.167594
648.595466	-115.689945
648.735819	-115.242645
648.876233	-114.829717
649.016707	-114.467629
649.157242	-114.181098
649.297838	-113.997165
649.438495	-113.940325
649.579213	-114.029319
649.719992	-114.275210
649.860832	-114.680284
650.001733	-115.236923
650.142695	-115.925932
650.283718	-116.715412
650.424803	-117.562332
650.565949	-118.418427
650.707156	-119.240466
650.848424	-120.000079
650.989754	-120.683249
651.131145	-121.273159
651.272597	-121.722119
651.414111	-121.932489
651.555687	-121.780220
651.697324	-121.196597
651.839022	-120.238723
651.980782	-119.057925
652.122604	-117.810428
652.264488	-116.605968
652.406433	-115.505431
652.548441	-114.535599
652.690510	-113.702561
652.832640	-113.000674
652.974833	-112.418211
653.117088	-111.941079
653.259405	-111.555569
653.401784	-111.249606
653.544224	-111.012488
653.686727	-110.833433
653.829293	-110.699426
653.971920	-110.593703
654.114609	-110.496301
654.257361	-110.387819
654.400175	-110.255479
654.543052	-110.098516
654.685991	-109.929816
654.828992	-109.772531
654.972056	-109.653752
655.115183	-109.598797
655.258372	-109.628073
655.401623	-109.756625
655.544937	-109.995588
655.688314	-110.354433
655.831754	-110.843270
655.975256	-111.474537
656.118822	-112.264222
656.262450	-113.232957
656.406141	-114.407101
656.549894	-115.820516
656.693711	-117.517935
656.837591	-119.559696
656.981534	-122.025013
657.125540	-124.996157
657.269610	-128.419500
657.413742	-131.470430
657.557938	-132.287323
657.702196	-131.402215
657.846519	-130.653734
657.990904	-130.627986
658.135353	-131.431487
658.279866	-133.167352
658.424441	-136.015953
658.569081	-139.321127
658.713784	-137.942842
658.858550	-133.398196
659.003381	-129.567356
659.148274	-126.506241
659.293232	-123.977244
659.438253	-121.846706
659.583339	-120.042734
659.728488	-118.519010
659.873701	-117.237444
660.018978	-116.161727
660.164318	-115.255669
660.309723	-114.483152
660.455192	-113.809052
660.600725	-113.201379
660.746323	-112.634364
660.891984	-112.091338
661.037710	-111.566278
661.183500	-111.063265
661.329354	-110.593989
661.475272	-110.174313
661.621255	-109.821238
661.767303	-109.551074
661.913415	-109.378755
662.059591	-109.318084
662.205833	-109.382477
662.352138	-109.585780
662.498509	-109.942886
662.644944	-110.469843
662.791443	-111.183389
662.938008	-112.099921
663.084638	-113.232918
663.231332	-114.586507
663.378091	-116.140371
663.524915	-117.815321
663.671804	-119.411759
663.818759	-120.574347
663.965778	-120.967495
664.112863	-120.613992
664.260012	-119.841739
664.407227	-118.945775
664.554507	-118.076301
664.701853	-117.289909
664.849264	-116.601733
664.996740	-116.009630
665.144282	-115.502609
665.291889	-115.064057
665.439561	-114.674221
665.587300	-114.313034
665.735103	-113.963590
665.882973	-113.615898
666.030908	-113.269804
666.178909	-112.936169
666.326976	-112.635157
666.475109	-112.391648
666.623307	-112.230198
666.771571	-112.171055
666.919902	-112.227911
667.068298	-112.407619
667.216761	-112.711820
667.365289	-113.140071
667.513884	-113.693590
667.662545	-114.378611
667.811272	-115.207620
667.960065	-116.196180
668.108925	-117.353354
668.257851	-118.662978
668.406843	-120.051962
668.555902	-121.353706
668.705027	-122.320430
668.854219	-122.763333
669.003478	-122.713310
669.152803	-122.355950
669.302195	-121.848803
669.451653	-121.253287
669.601179	-120.563964
669.750771	-119.754594
669.900430	-118.813771
670.050156	-117.764603
670.199949	-116.663732
670.349808	-115.583422
670.499735	-114.590733
670.649729	-113.734754
670.799790	-113.043479
670.949918	-112.526568
671.100114	-112.180318
671.250377	-111.993576
671.400707	-111.954048
671.551104	-112.053697
671.701569	-112.291544
671.852101	-112.671950
672.002700	-113.197369
672.153368	-113.855318
672.304102	-114.600729
672.454905	-115.341855
672.605775	-115.952766
672.756713	-116.336289
672.907718	-116.502382
673.058791	-116.571543
673.209933	-116.702166
673.361142	-117.032486
673.512419	-117.675592
673.663764	-118.748787
673.815177	-120.427007
673.966658	-123.045871
674.118207	-127.307900
674.269825	-132.222331
674.421510	-127.293054
674.573264	-122.217069
674.725086	-118.902224
674.876977	-116.604923
675.028936	-114.955939
675.180963	-113.759100
675.333059	-112.890267
675.485224	-112.257972
675.637457	-111.788447
675.789758	-111.421410
675.942129	-111.111271
676.094568	-110.830251
676.247075	-110.570563
676.399652	-110.343244
676.552298	-110.174087
676.705012	-110.097823
676.857795	-110.151513
677.010648	-110.368619
677.163569	-110.774328
677.316560	-111.381125
677.469619	-112.183074
677.622748	-113.147934
677.775946	-114.207634
677.929214	-115.249475
678.082551	-116.115682
678.235957	-116.626979
678.389432	-116.645743
678.542977	-116.154974
678.696592	-115.269861
678.850276	-114.154282
679.004030	-112.933817
679.157853	-111.672602
679.311746	-110.395979
679.465709	-109.122072
679.619742	-107.880002
679.773844	-106.709516
679.928017	-105.650887
680.082259	-104.735827
680.236571	-103.984171
680.390954	-103.405574
680.545406	-103.003417
680.699929	-102.779255
680.854522	-102.736897
681.009185	-102.885541
681.163918	-103.241676
681.318722	-103.829915
681.473596	-104.683445
681.628540	-105.844963
681.783555	-107.369416
681.938641	-109.330898
682.093797	-111.837755
682.249023	-115.066005
682.404321	-119.335123
682.559689	-125.136148
682.715128	-129.619693
682.870637	-126.058984
683.026218	-122.514014
683.181869	-119.836211
683.337591	-117.504357
683.493385	-115.347308
683.649249	-113.359897
683.805185	-111.574208
683.961191	-110.018532
684.117269	-108.712084
684.273418	-107.665937
684.429639	-106.882340
684.585930	-106.353007
684.742294	-106.056276
684.898728	-105.952763
685.055234	-105.981392
685.211812	-106.060978
685.368461	-106.103989
685.525182	-106.042846
685.681975	-105.852589
685.838839	-105.548546
685.995775	-105.162020
686.152783	-104.719481
686.309863	-104.240787
686.467014	-103.750641
686.624238	-103.288550
686.781534	-102.908533
686.938902	-102.670926
687.096342	-102.634155
687.253854	-102.851480
687.411438	-103.372753
687.569095	-104.249920
687.726824	-105.546116
687.884626	-107.351449
688.042499	-109.814673
688.200446	-113.213587
688.358465	-118.070311
688.516556	-123.555668
688.674720	-120.990040
688.832957	-117.010914
688.991266	-114.539898
689.149649	-112.999529
689.308104	-112.058370
689.466632	-111.563369
689.625233	-111.430035
689.783906	-111.569146
689.942653	-111.821660
690.101473	-111.920850
690.260367	-111.587075
690.419333	-110.765460
690.578372	-109.671396
690.737485	-108.562262
690.896672	-107.588695
691.055931	-106.802840
691.215264	-106.204896
691.374671	-105.775530
691.534151	-105.493494
691.693704	-105.344438
691.853332	-105.323788
692.013033	-105.435877
692.172807	-105.691772
692.332656	-106.107404
692.492578	-106.702996
692.652575	-107.504207
692.812645	-108.544280
692.972789	-109.865090
693.133007	-111.511511
693.293300	-113.499959
693.453666	-115.694889
693.614107	-117.488798
693.774622	-117.848733
693.935211	-116.822718
694.095875	-115.434707
694.256613	-114.227630
694.417426	-113.292916
694.578313	-112.583087
694.739274	-112.032812
694.900311	-111.596376
695.061421	-111.258031
695.222607	-111.028690
695.383868	-110.936305
695.545203	-111.016762
695.706613	-111.307587
695.868098	-111.842789
696.029658	-112.643618
696.191293	-113.695156
696.353003	-114.888906
696.514789	-115.925965
696.676649	-116.334726
696.838585	-115.885623
697.000596	-114.880838
697.162682	-113.734553
697.324844	-112.650803
697.487081	-111.668856
697.649394	-110.769837
697.811782	-109.939454
697.974246	-109.190630
698.136786	-108.558244
698.299401	-108.080764
698.462092	-107.781300
698.624859	-107.650548
698.787702	-107.629623
698.950621	-107.599694
699.113616	-107.407562
699.276686	-106.951927
699.439833	-106.265964
699.603056	-105.488643
699.766355	-104.762719
699.929731	-104.169580
700.093183	-103.718661
700.256711	-103.359750
700.420315	-103.006917
700.583996	-102.579923
700.747754	-102.051987
700.911588	-101.466252
701.075499	-100.905211
701.239486	-100.446199
701.403550	-100.135847
701.567691	-99.985198
701.731909	-99.974733
701.896203	-100.064110
702.060575	-100.206891
702.225024	-100.369289
702.389549	-100.545240
702.554152	-100.757411
702.718832	-101.042937
702.883589	-101.433211
703.048424	-101.937291
703.213335	-102.532005
703.378324	-103.159759
703.543391	-103.738519
703.708535	-104.187321
703.873757	-104.458140
704.039056	-104.550482
704.204433	-104.498211
704.369887	-104.347645
704.535420	-104.145876
704.701030	-103.937461
704.866718	-103.759359
705.032484	-103.630858
705.198328	-103.543608
705.364250	-103.459204
705.530250	-103.323193
705.696328	-103.097804
705.862485	-102.793677
706.028720	-102.470679
706.195033	-102.204767
706.361424	-102.047504
706.527894	-101.997392
706.694442	-101.986222
706.861069	-101.893228
707.027775	-101.609401
707.194559	-101.124402
707.361422	-100.542378
707.528363	-100.006915
707.695384	-99.625152
707.862483	-99.439709
708.029661	-99.427092
708.196918	-99.502357
708.364254	-99.538711
708.531670	-99.422845
708.699164	-99.126452
708.866738	-98.721171
709.034391	-98.319002
709.202123	-98.007947
709.369935	-97.828872
709.537826	-97.782693
709.705796	-97.848182
709.873847	-98.002178
710.041976	-98.237691
710.210186	-98.573778
710.378475	-99.054398
710.546844	-99.740385
710.715292	-100.701932
710.883821	-102.016964
711.052429	-103.773791
711.221118	-106.057028
711.389887	-108.800666
711.558735	-111.066743
711.727664	-110.796768
711.896673	-108.726293
712.065763	-106.719648
712.234932	-105.217830
712.404183	-104.170151
712.573513	-103.452346
712.742924	-102.924364
712.912416	-102.435480
713.081988	-101.851680
713.251641	-101.108549
713.421375	-100.239419
713.591190	-99.340058
713.761085	-98.507767
713.931061	-97.805901
714.101119	-97.258048
714.271257	-96.855111
714.441476	-96.565426
714.611777	-96.347152
714.782159	-96.164415
714.952622	-96.003521
715.123166	-95.880231
715.293792	-95.833360
715.464499	-95.910018
715.635288	-96.150956
715.806158	-96.580232
715.977110	-97.197755
716.148143	-97.971239
716.319259	-98.827821
716.490456	-99.654905
716.661735	-100.328961
716.833096	-100.774367
717.004538	-101.003103
717.176063	-101.084976
717.347670	-101.080256
717.519359	-100.997372
717.691130	-100.794481
717.862984	-100.415688
718.034920	-99.840897
718.206938	-99.112202
718.379039	-98.316490
718.551222	-97.547822
718.723488	-96.881862
718.895836	-96.368830
719.068267	-96.035924
719.240781	-95.890677
719.413377	-95.922010
719.586057	-96.099478
719.758819	-96.373906
719.931664	-96.685065
720.104593	-96.979575
720.277604	-97.232283
720.450699	-97.453095
720.623876	-97.667779
720.797137	-97.883227
720.970482	-98.058801
721.143910	-98.106850
721.317421	-97.939911
721.491016	-97.542361
721.664694	-96.993951
721.838456	-96.418584
722.012302	-95.921793
722.186231	-95.565863
722.360244	-95.372692
722.534342	-95.332172
722.708523	-95.406824
722.882788	-95.533691
723.057137	-95.631360
723.231570	-95.622512
723.406088	-95.470365
