# 2022-03-22_09.07.56
# shape = sech2
# FWHM_ps = 0.11
# carrier_nm = 1542
# frep_MHz = 12126
# pow_mW = 8000
# GDD = 0.0
# propa_len = 0.10488888888888889
# untap_len = 0.01
# taper_len = 0.04488888888888889
# waist_len = 0.02
# uptap_len = 0.02
# untap_scale = 1.0
# waist_scale = 0.3526315789473685
# workingDir = NL_20110305_12 (Spirou)
# axis = slow
# window_ps = 10.0
# steps = 200
# points = 21700
# 
# wavelength [nm]	 power spectral density [dB]
600.043425	-134.767729
600.163550	-134.425770
600.283723	-134.058680
600.403943	-133.690346
600.524212	-133.343554
600.644529	-133.036350
600.764895	-132.781719
600.885308	-132.587975
601.005770	-132.459287
601.126280	-132.396288
601.246839	-132.396985
601.367446	-132.457905
601.488101	-132.575258
601.608804	-132.746081
601.729557	-132.969513
601.850357	-133.247943
601.971206	-133.587662
602.092104	-133.999017
602.213050	-134.496352
602.334045	-135.098145
602.455089	-135.827531
602.576181	-136.713267
602.697322	-137.790838
602.818511	-139.102011
602.939749	-140.685565
603.061036	-142.528996
603.182372	-144.380411
603.303757	-145.366316
603.425191	-144.547787
603.546673	-142.551481
603.668204	-140.407148
603.789785	-138.488373
603.911414	-136.840092
604.033092	-135.428216
604.154820	-134.210421
604.276596	-133.151178
604.398422	-132.223395
604.520297	-131.407178
604.642220	-130.688183
604.764193	-130.056192
604.886216	-129.503972
605.008287	-129.026395
605.130408	-128.619766
605.252578	-128.281224
605.374798	-128.008248
605.497066	-127.798355
605.619385	-127.648977
605.741752	-127.557479
605.864169	-127.521193
605.986636	-127.537420
606.109152	-127.603424
606.231718	-127.716421
606.354333	-127.873548
606.476998	-128.071850
606.599712	-128.308305
606.722476	-128.579878
606.845290	-128.883546
606.968154	-129.216352
607.091067	-129.575482
607.214030	-129.958347
607.337043	-130.362632
607.460106	-130.786144
607.583219	-131.226272
607.706381	-131.679223
607.829594	-132.139026
607.952856	-132.596095
608.076169	-133.035241
608.199531	-133.433409
608.322944	-133.758220
608.446407	-133.969357
608.569920	-134.025224
608.693483	-133.895184
608.817096	-133.572379
608.940759	-133.078436
609.064473	-132.456041
609.188237	-131.754901
609.312051	-131.019753
609.435916	-130.284465
609.559831	-129.571275
609.683796	-128.892716
609.807812	-128.254278
609.931878	-127.656763
610.055995	-127.098153
610.180162	-126.575079
610.304380	-126.083942
610.428648	-125.621682
610.552967	-125.186233
610.677337	-124.776667
610.801757	-124.393111
610.926228	-124.036525
611.050750	-123.708348
611.175323	-123.410085
611.299946	-123.142969
611.424620	-122.907707
611.549345	-122.704299
611.674121	-122.532016
611.798948	-122.389536
611.923826	-122.275222
612.048755	-122.187520
612.173734	-122.125417
612.298765	-122.088867
612.423847	-122.079054
612.548980	-122.098420
612.674165	-122.150455
612.799400	-122.239301
612.924687	-122.369240
613.050025	-122.544133
613.175414	-122.766915
613.300854	-123.039132
613.426346	-123.360573
613.551889	-123.729065
613.677484	-124.140518
613.803130	-124.589200
613.928827	-125.068163
614.054576	-125.569763
614.180377	-126.086288
614.306229	-126.610450
614.432132	-127.135354
614.558087	-127.653821
614.684094	-128.157137
614.810153	-128.633519
614.936263	-129.067099
615.062425	-129.438724
615.188639	-129.729469
615.314904	-129.926410
615.441222	-130.028268
615.567591	-130.047667
615.694012	-130.008196
615.820486	-129.937511
615.947011	-129.859538
616.073588	-129.788122
616.200217	-129.722779
616.326898	-129.646679
616.453632	-129.527941
616.580417	-129.326323
616.707255	-129.006003
616.834144	-128.550427
616.961086	-127.970705
617.088081	-127.301698
617.215127	-126.589212
617.342226	-125.877221
617.469378	-125.200686
617.596581	-124.583905
617.723837	-124.041877
617.851146	-123.582678
617.978507	-123.209749
618.105920	-122.923663
618.233386	-122.723395
618.360905	-122.607278
618.488476	-122.573765
618.616100	-122.621996
618.743777	-122.752295
618.871506	-122.966641
618.999288	-123.269096
619.127123	-123.666108
619.255011	-124.166689
619.382951	-124.782576
619.510945	-125.528278
619.638991	-126.420746
619.767090	-127.478152
619.895243	-128.716387
620.023448	-130.139361
620.151706	-131.713812
620.280017	-133.313945
620.408382	-134.649572
620.536799	-135.333708
620.665270	-135.248600
620.793794	-134.709499
620.922371	-134.110111
621.051002	-133.683609
621.179686	-133.531951
621.308423	-133.698545
621.437213	-134.208683
621.566057	-135.082888
621.694954	-136.322893
621.823905	-137.829975
621.952909	-139.153739
622.081967	-139.305815
622.211079	-137.882167
622.340244	-135.766229
622.469462	-133.684004
622.598735	-131.843071
622.728061	-130.251215
622.857441	-128.873202
622.986874	-127.673685
623.116361	-126.625806
623.245903	-125.710878
623.375498	-124.916056
623.505147	-124.231927
623.634850	-123.650564
623.764606	-123.164086
623.894417	-122.763700
624.024282	-122.439236
624.154201	-122.179173
624.284174	-121.971196
624.414202	-121.803281
624.544283	-121.665099
624.674419	-121.549300
624.804609	-121.452306
624.934853	-121.374351
625.065151	-121.318620
625.195504	-121.289525
625.325911	-121.290536
625.456373	-121.322001
625.586889	-121.379246
625.717460	-121.451329
625.848085	-121.521064
625.978764	-121.566856
626.109498	-121.566565
626.240287	-121.502867
626.371131	-121.368377
626.502029	-121.168061
626.632982	-120.917589
626.763989	-120.638646
626.895052	-120.353665
627.026169	-120.081940
627.157341	-119.837728
627.288568	-119.630004
627.419850	-119.463229
627.551187	-119.338551
627.682579	-119.254942
627.814026	-119.210001
627.945528	-119.200269
628.077085	-119.220877
628.208697	-119.264425
628.340364	-119.319184
628.472087	-119.367124
628.603865	-119.382768
628.735698	-119.334483
628.867586	-119.189815
628.999530	-118.924692
629.131529	-118.532886
629.263584	-118.029947
629.395694	-117.448761
629.527859	-116.829766
629.660080	-116.211653
629.792357	-115.625970
629.924689	-115.095622
630.057077	-114.635694
630.189520	-114.255177
630.322019	-113.958736
630.454574	-113.748195
630.587184	-113.623739
630.719851	-113.584921
630.852573	-113.631492
630.985351	-113.764145
631.118185	-113.985148
631.251075	-114.298820
631.384021	-114.711776
631.517023	-115.232864
631.650081	-115.872510
631.783195	-116.640919
631.916365	-117.543824
632.049592	-118.572720
632.182874	-119.683830
632.316213	-120.760236
632.449608	-121.575748
632.583059	-121.852475
632.716567	-121.479180
632.850131	-120.631613
632.983751	-119.588940
633.117428	-118.547448
633.251161	-117.599388
633.384951	-116.774688
633.518797	-116.074657
633.652700	-115.489617
633.786660	-115.007030
633.920676	-114.615083
634.054749	-114.304198
634.188879	-114.067498
634.323065	-113.900676
634.457308	-113.801417
634.591608	-113.768557
634.725965	-113.801166
634.860379	-113.897667
634.994850	-114.055068
635.129377	-114.268385
635.263962	-114.530353
635.398604	-114.831555
635.533303	-115.161058
635.668058	-115.507633
635.802872	-115.861371
635.937742	-116.215272
636.072669	-116.566206
636.207654	-116.914881
636.342696	-117.264844
636.477796	-117.620825
636.612953	-117.987001
636.748167	-118.365814
636.883439	-118.757832
637.018768	-119.162864
637.154155	-119.582158
637.289599	-120.021056
637.425101	-120.491110
637.560660	-121.010719
637.696277	-121.603632
637.831952	-122.294715
637.967685	-123.101099
638.103475	-124.013252
638.239324	-124.955259
638.375230	-125.722112
638.511194	-125.971636
638.647215	-125.452468
638.783295	-124.293767
638.919433	-122.851214
639.055629	-121.397092
639.191883	-120.057724
639.328195	-118.872731
639.464565	-117.844515
639.600994	-116.962415
639.737481	-116.212807
639.874025	-115.583040
640.010629	-115.062868
640.147290	-114.644834
640.284010	-114.324167
640.420789	-114.098418
640.557625	-113.966954
640.694521	-113.930316
640.831474	-113.989533
640.968487	-114.145387
641.105558	-114.397647
641.242687	-114.744243
641.379876	-115.180329
641.517123	-115.697249
641.654429	-116.281573
641.791793	-116.914481
641.929216	-117.571833
642.066699	-118.225212
642.204240	-118.843785
642.341840	-119.396197
642.479499	-119.851362
642.617217	-120.177842
642.754994	-120.343769
642.892830	-120.320953
643.030726	-120.094518
643.168680	-119.672982
643.306694	-119.090181
643.444767	-118.396167
643.582899	-117.643480
643.721091	-116.876860
643.859342	-116.129334
643.997652	-115.423016
644.136022	-114.771842
644.274451	-114.184460
644.412940	-113.666537
644.551488	-113.222328
644.690096	-112.855569
644.828763	-112.569864
644.967490	-112.368736
645.106277	-112.255498
645.245124	-112.233050
645.384030	-112.303693
645.522997	-112.468988
645.662023	-112.729653
645.801109	-113.085519
645.940255	-113.535580
646.079460	-114.078133
646.218726	-114.711103
646.358052	-115.432620
646.497438	-116.241861
646.636884	-117.139997
646.776391	-118.130990
646.915957	-119.222021
647.055584	-120.423189
647.195271	-121.745782
647.335019	-123.197690
647.474826	-124.772480
647.614695	-126.425019
647.754623	-128.026131
647.894612	-129.317438
648.034662	-129.980959
648.174772	-129.900966
648.314943	-129.280161
648.455174	-128.403744
648.595466	-127.449247
648.735819	-126.489280
648.876233	-125.546430
649.016707	-124.629178
649.157242	-123.746287
649.297838	-122.909677
649.438495	-122.133306
649.579213	-121.431811
649.719992	-120.820035
649.860832	-120.313401
650.001733	-119.928821
650.142695	-119.685855
650.283718	-119.608108
650.424803	-119.725222
650.565949	-120.076049
650.707156	-120.713923
650.848424	-121.715452
650.989754	-123.193346
651.131145	-125.296991
651.272597	-128.025351
651.414111	-129.836066
651.555687	-127.734827
651.697324	-124.234924
651.839022	-121.291181
651.980782	-118.985826
652.122604	-117.168778
652.264488	-115.722725
652.406433	-114.570308
652.548441	-113.661180
652.690510	-112.962552
652.832640	-112.453390
652.974833	-112.120786
653.117088	-111.957417
653.259405	-111.959361
653.401784	-112.123646
653.544224	-112.444720
653.686727	-112.908566
653.829293	-113.482607
653.971920	-114.100389
654.114609	-114.646650
654.257361	-114.965886
654.400175	-114.926396
654.543052	-114.511459
654.685991	-113.831192
654.828992	-113.038376
654.972056	-112.252893
655.115183	-111.543882
655.258372	-110.942592
655.401623	-110.458578
655.544937	-110.090946
655.688314	-109.834936
655.831754	-109.685552
655.975256	-109.639462
656.118822	-109.695846
656.262450	-109.856507
656.406141	-110.125486
656.549894	-110.508396
656.693711	-111.011641
656.837591	-111.641564
656.981534	-112.403560
657.125540	-113.301227
657.269610	-114.335629
657.413742	-115.504609
657.557938	-116.801607
657.702196	-118.211969
657.846519	-119.700277
657.990904	-121.173141
658.135353	-122.400739
658.279866	-122.970536
658.424441	-122.550253
658.569081	-121.310405
658.713784	-119.720241
658.858550	-118.117976
659.003381	-116.650990
659.148274	-115.364604
659.293232	-114.263195
659.438253	-113.336611
659.583339	-112.570252
659.728488	-111.948840
659.873701	-111.457855
660.018978	-111.084113
660.164318	-110.816091
660.309723	-110.644197
660.455192	-110.560971
660.600725	-110.561089
660.746323	-110.641079
660.891984	-110.798694
661.037710	-111.031867
661.183500	-111.337217
661.329354	-111.708119
661.475272	-112.132425
661.621255	-112.590276
661.767303	-113.053153
661.913415	-113.486189
662.059591	-113.855552
662.205833	-114.140168
662.352138	-114.342476
662.498509	-114.491210
662.644944	-114.634192
662.791443	-114.826184
662.938008	-115.118534
663.084638	-115.553042
663.231332	-116.157580
663.378091	-116.937630
663.524915	-117.854695
663.671804	-118.781741
663.818759	-119.454783
663.965778	-119.543430
664.112863	-118.935520
664.260012	-117.866874
664.407227	-116.660822
664.554507	-115.521488
664.701853	-114.536994
664.849264	-113.735758
664.996740	-113.123347
665.144282	-112.699686
665.291889	-112.466266
665.439561	-112.429144
665.587300	-112.600350
665.735103	-112.998718
665.882973	-113.650155
666.030908	-114.585612
666.178909	-115.829440
666.326976	-117.351726
666.475109	-118.910516
666.623307	-119.779882
666.771571	-119.179438
666.919902	-117.517494
667.068298	-115.677270
667.216761	-114.060029
667.365289	-112.747710
667.513884	-111.725640
667.662545	-110.960506
667.811272	-110.420597
667.960065	-110.079852
668.108925	-109.917869
668.257851	-109.919026
668.406843	-110.071215
668.555902	-110.363917
668.705027	-110.784759
668.854219	-111.313178
669.003478	-111.909480
669.152803	-112.499500
669.302195	-112.963778
669.451653	-113.157333
669.601179	-112.982084
669.750771	-112.461924
669.900430	-111.727129
670.050156	-110.928878
670.199949	-110.180215
670.349808	-109.547827
670.499735	-109.065496
670.649729	-108.748002
670.799790	-108.600216
670.949918	-108.622121
671.100114	-108.811284
671.250377	-109.163718
671.400707	-109.673419
671.551104	-110.330309
671.701569	-111.115521
671.852101	-111.992097
672.002700	-112.889392
672.153368	-113.685695
672.304102	-114.212933
672.454905	-114.322566
672.605775	-113.990006
672.756713	-113.335405
672.907718	-112.531007
673.058791	-111.715058
673.209933	-110.971774
673.361142	-110.345730
673.512419	-109.859160
673.663764	-109.523291
673.815177	-109.344431
673.966658	-109.326742
674.118207	-109.472836
674.269825	-109.782395
674.421510	-110.247902
674.573264	-110.844953
674.725086	-111.513023
674.876977	-112.126123
675.028936	-112.477472
675.180963	-112.347998
675.333059	-111.671592
675.485224	-110.598865
675.637457	-109.357756
675.789758	-108.119061
675.942129	-106.974696
676.094568	-105.965074
676.247075	-105.104622
676.399652	-104.396255
676.552298	-103.838325
676.705012	-103.427731
676.857795	-103.161300
677.010648	-103.036449
677.163569	-103.051616
677.316560	-103.206646
677.469619	-103.503256
677.622748	-103.945615
677.775946	-104.541072
677.929214	-105.301181
678.082551	-106.243226
678.235957	-107.392721
678.389432	-108.787839
678.542977	-110.487801
678.696592	-112.589922
678.850276	-115.267465
679.004030	-118.858524
679.157853	-123.972421
679.311746	-128.213318
679.465709	-123.787343
679.619742	-119.682268
679.773844	-116.958685
679.928017	-115.030415
680.082259	-113.594238
680.236571	-112.498458
680.390954	-111.664629
680.545406	-111.053072
680.699929	-110.646397
680.854522	-110.441023
681.009185	-110.442537
681.163918	-110.662544
681.318722	-111.114740
681.473596	-111.805690
681.628540	-112.708606
681.783555	-113.694784
681.938641	-114.413651
682.093797	-114.327165
682.249023	-113.249668
682.404321	-111.616216
682.559689	-109.911806
682.715128	-108.368191
682.870637	-107.051894
683.026218	-105.965124
683.181869	-105.090471
683.337591	-104.406545
683.493385	-103.892917
683.649249	-103.531564
683.805185	-103.307364
683.961191	-103.208349
684.117269	-103.225885
684.273418	-103.354702
684.429639	-103.592652
684.585930	-103.940111
684.742294	-104.399047
684.898728	-104.971809
685.055234	-105.659721
685.211812	-106.461712
685.368461	-107.373333
685.525182	-108.386708
685.681975	-109.492119
685.838839	-110.681781
685.995775	-111.955666
686.152783	-113.327866
686.309863	-114.830279
686.467014	-116.508343
686.624238	-118.396621
686.781534	-120.434290
686.938902	-122.234902
687.096342	-122.921836
687.253854	-122.099979
687.411438	-120.559493
687.569095	-119.017461
687.726824	-117.699437
687.884626	-116.616189
688.042499	-115.722624
688.200446	-114.967203
688.358465	-114.306041
688.516556	-113.707567
688.674720	-113.154226
688.832957	-112.642103
688.991266	-112.178624
689.149649	-111.779069
689.308104	-111.462856
689.466632	-111.250460
689.625233	-111.161331
689.783906	-111.212854
689.942653	-111.420264
690.101473	-111.797467
690.260367	-112.358840
690.419333	-113.122315
690.578372	-114.114429
690.737485	-115.378893
690.896672	-116.992355
691.055931	-119.096419
691.215264	-121.971199
691.374671	-126.202941
691.534151	-131.907581
691.693704	-129.337794
691.853332	-124.135091
692.013033	-120.748418
692.172807	-118.444239
692.332656	-116.813211
692.492578	-115.653130
692.652575	-114.851697
692.812645	-114.338799
692.972789	-114.065429
693.133007	-113.993395
693.293300	-114.089800
693.453666	-114.323865
693.614107	-114.665180
693.774622	-115.083008
693.935211	-115.546652
694.095875	-116.027014
694.256613	-116.498897
694.417426	-116.942920
694.578313	-117.345633
694.739274	-117.696413
694.900311	-117.980226
695.061421	-118.167121
695.222607	-118.203501
695.383868	-118.016625
695.545203	-117.543870
695.706613	-116.775739
695.868098	-115.772783
696.029658	-114.636817
696.191293	-113.467135
696.353003	-112.335949
696.514789	-111.285734
696.676649	-110.336220
696.838585	-109.492315
697.000596	-108.749931
697.162682	-108.099766
697.324844	-107.529924
697.487081	-107.027959
697.649394	-106.582489
697.811782	-106.184442
697.974246	-105.827987
698.136786	-105.511127
698.299401	-105.235856
698.462092	-105.007751
698.624859	-104.835100
698.787702	-104.727635
698.950621	-104.694826
699.113616	-104.743726
699.276686	-104.876414
699.439833	-105.086931
699.603056	-105.357681
699.766355	-105.655936
699.929731	-105.932725
700.093183	-106.128347
700.256711	-106.188283
700.420315	-106.085551
700.583996	-105.834707
700.747754	-105.485437
700.911588	-105.102083
701.075499	-104.745220
701.239486	-104.463462
701.403550	-104.293523
701.567691	-104.263708
701.731909	-104.397764
701.896203	-104.718224
702.060575	-105.249456
702.225024	-106.020965
702.389549	-107.071753
702.554152	-108.457376
702.718832	-110.262822
702.883589	-112.626680
703.048424	-115.775683
703.213335	-119.896939
703.378324	-122.915933
703.543391	-120.386742
703.708535	-117.010060
703.873757	-114.584963
704.039056	-112.897625
704.204433	-111.726920
704.369887	-110.943523
704.535420	-110.471627
704.701030	-110.259304
704.866718	-110.256234
705.032484	-110.393239
705.198328	-110.564906
705.364250	-110.630606
705.530250	-110.459242
705.696328	-110.006366
705.862485	-109.344058
706.028720	-108.603650
706.195033	-107.902231
706.361424	-107.313296
706.527894	-106.871755
706.694442	-106.587564
706.861069	-106.456727
707.027775	-106.468407
707.194559	-106.609475
707.361422	-106.867798
707.528363	-107.235066
707.695384	-107.709576
707.862483	-108.299190
708.029661	-109.024591
708.196918	-109.923280
708.364254	-111.055715
708.531670	-112.517048
708.699164	-114.462533
708.866738	-117.164354
709.034391	-121.093712
709.202123	-125.744994
709.369935	-123.549683
709.537826	-118.980517
709.705796	-115.853741
709.873847	-113.743663
710.041976	-112.305843
710.210186	-111.354955
710.378475	-110.784607
710.546844	-110.528474
710.715292	-110.543119
710.883821	-110.801545
711.052429	-111.293407
711.221118	-112.031030
711.389887	-113.062256
711.558735	-114.493294
711.727664	-116.525694
711.896673	-119.456961
712.065763	-122.675060
712.234932	-120.949309
712.404183	-116.305871
712.573513	-112.558350
712.742924	-109.713097
712.912416	-107.510880
713.081988	-105.791869
713.251641	-104.462765
713.421375	-103.466822
713.591190	-102.767865
713.761085	-102.341880
713.931061	-102.172536
714.101119	-102.248909
714.271257	-102.564627
714.441476	-103.118122
714.611777	-103.914035
714.782159	-104.965600
714.952622	-106.296581
715.123166	-107.936248
715.293792	-109.880640
715.464499	-111.924975
715.635288	-113.259543
715.806158	-112.827683
715.977110	-111.136692
716.148143	-109.321047
716.319259	-107.833953
716.490456	-106.751353
716.661735	-106.056014
716.833096	-105.718120
717.004538	-105.710445
717.176063	-106.006335
717.347670	-106.570570
717.519359	-107.342622
717.691130	-108.211856
717.862984	-108.999959
718.034920	-109.500602
718.206938	-109.606842
718.379039	-109.401248
718.551222	-109.074560
718.723488	-108.792669
718.895836	-108.647311
719.068267	-108.666907
719.240781	-108.835562
719.413377	-109.104546
719.586057	-109.401776
719.758819	-109.649985
719.931664	-109.796653
720.104593	-109.839665
720.277604	-109.825814
720.450699	-109.822788
720.623876	-109.887523
720.797137	-110.046271
720.970482	-110.284460
721.143910	-110.541491
721.317421	-110.716474
721.491016	-110.701277
721.664694	-110.440640
721.838456	-109.972286
722.012302	-109.402307
722.186231	-108.846789
722.360244	-108.395284
722.534342	-108.105890
722.708523	-108.014316
