# 2022-03-22_08.58.55
# shape = sech2
# FWHM_ps = 0.11
# carrier_nm = 1542
# frep_MHz = 12126
# pow_mW = 8000
# GDD = 0.0
# propa_len = 0.10488888888888889
# untap_len = 0.01
# taper_len = 0.04488888888888889
# waist_len = 0.02
# uptap_len = 0.02
# untap_scale = 1.0
# waist_scale = 0.2578947368421053
# workingDir = NL_20110305_12 (Spirou)
# axis = slow
# window_ps = 10.0
# steps = 200
# points = 21700
# 
# wavelength [nm]	 power spectral density [dB]
600.043425	-75.490734
600.163550	-75.527950
600.283723	-75.562074
600.403943	-75.588817
600.524212	-75.606496
600.644529	-75.614851
600.764895	-75.615331
600.885308	-75.610813
601.005770	-75.604946
601.126280	-75.601373
601.246839	-75.603142
601.367446	-75.612704
601.488101	-75.631711
601.608804	-75.660044
601.729557	-75.696051
601.850357	-75.737499
601.971206	-75.782404
602.092104	-75.828505
602.213050	-75.873968
602.334045	-75.918332
602.455089	-75.961384
602.576181	-76.003840
602.697322	-76.046979
602.818511	-76.092963
602.939749	-76.143910
603.061036	-76.201509
603.182372	-76.267188
603.303757	-76.341578
603.425191	-76.423958
603.546673	-76.511971
603.668204	-76.601957
603.789785	-76.690070
603.911414	-76.773009
604.033092	-76.848043
604.154820	-76.913011
604.276596	-76.966539
604.398422	-77.009336
604.520297	-77.043849
604.642220	-77.073184
604.764193	-77.100443
604.886216	-77.129092
605.008287	-77.162137
605.130408	-77.201080
605.252578	-77.246843
605.374798	-77.299601
605.497066	-77.359014
605.619385	-77.423474
605.741752	-77.491604
605.864169	-77.562183
605.986636	-77.633746
606.109152	-77.705564
606.231718	-77.778565
606.354333	-77.853757
606.476998	-77.931974
606.599712	-78.014968
606.722476	-78.104902
606.845290	-78.202731
606.968154	-78.307547
607.091067	-78.420259
607.214030	-78.541376
607.337043	-78.669640
607.460106	-78.802217
607.583219	-78.937153
607.706381	-79.072216
607.829594	-79.205628
607.952856	-79.336653
608.076169	-79.465169
608.199531	-79.590700
608.322944	-79.714076
608.446407	-79.837516
608.569920	-79.964074
608.693483	-80.096844
608.817096	-80.238860
608.940759	-80.391505
609.064473	-80.555340
609.188237	-80.731630
609.312051	-80.921653
609.435916	-81.124485
609.559831	-81.338041
609.683796	-81.560140
609.807812	-81.789790
609.931878	-82.025519
610.055995	-82.266416
610.180162	-82.512705
610.304380	-82.765322
610.428648	-83.024031
610.552967	-83.290004
610.677337	-83.565757
610.801757	-83.852477
610.926228	-84.149511
611.050750	-84.457924
611.175323	-84.777797
611.299946	-85.107514
611.424620	-85.442757
611.549345	-85.779453
611.674121	-86.113696
611.798948	-86.438379
611.923826	-86.750582
612.048755	-87.049755
612.173734	-87.333270
612.298765	-87.595247
612.423847	-87.834855
612.548980	-88.056176
612.674165	-88.258044
612.799400	-88.435986
612.924687	-88.588657
613.050025	-88.717912
613.175414	-88.819943
613.300854	-88.890821
613.426346	-88.929190
613.551889	-88.933549
613.677484	-88.901493
613.803130	-88.834072
613.928827	-88.733525
614.054576	-88.599675
614.180377	-88.432058
614.306229	-88.231635
614.432132	-87.999427
614.558087	-87.736593
614.684094	-87.446549
614.810153	-87.133444
614.936263	-86.804850
615.062425	-86.467549
615.188639	-86.127134
615.314904	-85.784540
615.441222	-85.445982
615.567591	-85.118154
615.694012	-84.805493
615.820486	-84.508188
615.947011	-84.225318
616.073588	-83.956529
616.200217	-83.701352
616.326898	-83.458665
616.453632	-83.226075
616.580417	-82.998353
616.707255	-82.770942
616.834144	-82.541537
616.961086	-82.308824
617.088081	-82.071730
617.215127	-81.830729
617.342226	-81.588374
617.469378	-81.346785
617.596581	-81.109259
617.723837	-80.880444
617.851146	-80.663963
617.978507	-80.461349
618.105920	-80.274198
618.233386	-80.105524
618.360905	-79.956895
618.488476	-79.826991
618.616100	-79.714170
618.743777	-79.616366
618.871506	-79.528263
618.999288	-79.443566
619.127123	-79.357757
619.255011	-79.267358
619.382951	-79.168701
619.510945	-79.058110
619.638991	-78.933527
619.767090	-78.794998
619.895243	-78.645335
620.023448	-78.488403
620.151706	-78.328310
620.280017	-78.169552
620.408382	-78.016591
620.536799	-77.872554
620.665270	-77.740742
620.793794	-77.624883
620.922371	-77.527214
621.051002	-77.446776
621.179686	-77.382720
621.308423	-77.335010
621.437213	-77.301419
621.566057	-77.277372
621.694954	-77.259096
621.823905	-77.244457
621.952909	-77.229791
622.081967	-77.210394
622.211079	-77.183220
622.340244	-77.146897
622.469462	-77.102156
622.598735	-77.050605
622.728061	-76.993607
622.857441	-76.932225
622.986874	-76.869554
623.116361	-76.809098
623.245903	-76.754185
623.375498	-76.708613
623.505147	-76.675703
623.634850	-76.656490
623.764606	-76.650295
623.894417	-76.656774
624.024282	-76.676739
624.154201	-76.709713
624.284174	-76.753868
624.414202	-76.806858
624.544283	-76.865486
624.674419	-76.926669
624.804609	-76.988454
624.934853	-77.048790
625.065151	-77.104952
625.195504	-77.155568
625.325911	-77.201537
625.456373	-77.242191
625.586889	-77.277463
625.717460	-77.309887
625.848085	-77.343423
625.978764	-77.379580
626.109498	-77.418704
626.240287	-77.462911
626.371131	-77.515608
626.502029	-77.578183
626.632982	-77.650418
626.763989	-77.731704
626.895052	-77.821190
627.026169	-77.917561
627.157341	-78.019740
627.288568	-78.125983
627.419850	-78.232823
627.551187	-78.338029
627.682579	-78.439640
627.814026	-78.535556
627.945528	-78.622178
628.077085	-78.697516
628.208697	-78.761810
628.340364	-78.815436
628.472087	-78.857751
628.603865	-78.889043
628.735698	-78.911250
628.867586	-78.926395
628.999530	-78.936086
629.131529	-78.941974
629.263584	-78.945697
629.395694	-78.948212
629.527859	-78.951213
629.660080	-78.956563
629.792357	-78.963881
629.924689	-78.971708
630.057077	-78.978966
630.189520	-78.984266
630.322019	-78.985923
630.454574	-78.982209
630.587184	-78.970242
630.719851	-78.947144
630.852573	-78.910285
630.985351	-78.858716
631.118185	-78.790719
631.251075	-78.704008
631.384021	-78.598168
631.517023	-78.475222
631.650081	-78.337411
631.783195	-78.185931
631.916365	-78.021683
632.049592	-77.847586
632.182874	-77.668101
632.316213	-77.487017
632.449608	-77.306981
632.583059	-77.129799
632.716567	-76.957043
632.850131	-76.791222
632.983751	-76.633556
633.117428	-76.484622
633.251161	-76.344350
633.384951	-76.213233
633.518797	-76.090654
633.652700	-75.975013
633.786660	-75.864159
633.920676	-75.756150
634.054749	-75.648740
634.188879	-75.539561
634.323065	-75.426466
634.457308	-75.307877
634.591608	-75.182407
634.725965	-75.049162
634.860379	-74.908465
634.994850	-74.760614
635.129377	-74.605797
635.263962	-74.445500
635.398604	-74.281141
635.533303	-74.114771
635.668058	-73.949018
635.802872	-73.786070
635.937742	-73.627374
636.072669	-73.473881
636.207654	-73.327348
636.342696	-73.189729
636.477796	-73.062260
636.612953	-72.945516
636.748167	-72.839302
636.883439	-72.742558
637.018768	-72.654667
637.154155	-72.575309
637.289599	-72.503691
637.425101	-72.438600
637.560660	-72.378621
637.696277	-72.322073
637.831952	-72.267333
637.967685	-72.213150
638.103475	-72.158140
638.239324	-72.101425
638.375230	-72.042189
638.511194	-71.979976
638.647215	-71.914328
638.783295	-71.845087
638.919433	-71.772625
639.055629	-71.697682
639.191883	-71.620732
639.328195	-71.542580
639.464565	-71.464624
639.600994	-71.388072
639.737481	-71.313902
639.874025	-71.243550
640.010629	-71.178558
640.147290	-71.119578
640.284010	-71.066782
640.420789	-71.021073
640.557625	-70.983538
640.694521	-70.954261
640.831474	-70.932801
640.968487	-70.919215
641.105558	-70.913566
641.242687	-70.915005
641.379876	-70.921826
641.517123	-70.933029
641.654429	-70.948212
641.791793	-70.965927
641.929216	-70.983781
642.066699	-71.000439
642.204240	-71.015163
642.341840	-71.026895
642.479499	-71.034535
642.617217	-71.037461
642.754994	-71.035465
642.892830	-71.028379
643.030726	-71.016991
643.168680	-71.002715
643.306694	-70.987425
643.444767	-70.972450
643.582899	-70.958661
643.721091	-70.947512
643.859342	-70.940319
643.997652	-70.938320
644.136022	-70.942494
644.274451	-70.953712
644.412940	-70.973102
644.551488	-71.001300
644.690096	-71.037943
644.828763	-71.081552
644.967490	-71.130959
645.106277	-71.185846
645.245124	-71.245465
645.384030	-71.308483
645.522997	-71.373525
645.662023	-71.439096
645.801109	-71.504156
645.940255	-71.567886
646.079460	-71.629019
646.218726	-71.686807
646.358052	-71.740738
646.497438	-71.790158
646.636884	-71.834936
646.776391	-71.875301
646.915957	-71.911168
647.055584	-71.942491
647.195271	-71.970073
647.335019	-71.994807
647.474826	-72.016327
647.614695	-72.034827
647.754623	-72.051362
647.894612	-72.066665
648.034662	-72.081210
648.174772	-72.094910
648.314943	-72.108320
648.455174	-72.122678
648.595466	-72.138421
648.735819	-72.155860
648.876233	-72.175699
649.016707	-72.198860
649.157242	-72.225914
649.297838	-72.256960
649.438495	-72.292666
649.579213	-72.333093
649.719992	-72.378439
649.860832	-72.428581
650.001733	-72.482352
650.142695	-72.538557
650.283718	-72.596955
650.424803	-72.656814
650.565949	-72.716184
650.707156	-72.772994
650.848424	-72.827027
650.989754	-72.878329
651.131145	-72.925573
651.272597	-72.967333
651.414111	-73.002557
651.555687	-73.031346
651.697324	-73.052970
651.839022	-73.066639
651.980782	-73.071956
652.122604	-73.069089
652.264488	-73.057125
652.406433	-73.035340
652.548441	-73.004279
652.690510	-72.964442
652.832640	-72.914951
652.974833	-72.855302
653.117088	-72.786738
653.259405	-72.710225
653.401784	-72.625368
653.544224	-72.532726
653.686727	-72.433646
653.829293	-72.329658
653.971920	-72.221768
654.114609	-72.111594
654.257361	-72.000990
654.400175	-71.891931
654.543052	-71.785457
654.685991	-71.682231
654.828992	-71.582950
654.972056	-71.489195
655.115183	-71.402219
655.258372	-71.322279
655.401623	-71.248117
655.544937	-71.179628
655.688314	-71.117468
655.831754	-71.060265
655.975256	-71.006339
656.118822	-70.955848
656.262450	-70.909044
656.406141	-70.864818
656.549894	-70.821860
656.693711	-70.780996
656.837591	-70.742889
656.981534	-70.707193
657.125540	-70.673590
657.269610	-70.641997
657.413742	-70.612360
657.557938	-70.583825
657.702196	-70.555348
657.846519	-70.525281
657.990904	-70.491817
658.135353	-70.453657
658.279866	-70.409425
658.424441	-70.357193
658.569081	-70.295238
658.713784	-70.223128
658.858550	-70.140357
659.003381	-70.046796
659.148274	-69.942794
659.293232	-69.829429
659.438253	-69.708172
659.583339	-69.580383
659.728488	-69.447888
659.873701	-69.312360
660.018978	-69.175382
660.164318	-69.037874
660.309723	-68.900820
660.455192	-68.765512
660.600725	-68.633233
660.746323	-68.504343
660.891984	-68.379111
661.037710	-68.258044
661.183500	-68.141015
661.329354	-68.028443
661.475272	-67.920998
661.621255	-67.818758
661.767303	-67.721362
661.913415	-67.629203
662.059591	-67.543382
662.205833	-67.464847
662.352138	-67.394172
662.498509	-67.331700
662.644944	-67.277671
662.791443	-67.232261
662.938008	-67.195137
663.084638	-67.165938
663.231332	-67.144283
663.378091	-67.129252
663.524915	-67.119485
663.671804	-67.113992
663.818759	-67.111331
663.965778	-67.110318
664.112863	-67.110066
664.260012	-67.109797
664.407227	-67.109068
664.554507	-67.107440
664.701853	-67.104998
664.849264	-67.101660
664.996740	-67.097246
665.144282	-67.091774
665.291889	-67.084994
665.439561	-67.076544
665.587300	-67.065809
665.735103	-67.052288
665.882973	-67.035868
666.030908	-67.015553
666.178909	-66.990570
666.326976	-66.961036
666.475109	-66.927564
666.623307	-66.890357
666.771571	-66.849614
666.919902	-66.806052
667.068298	-66.760274
667.216761	-66.712557
667.365289	-66.663561
667.513884	-66.614294
667.662545	-66.565083
667.811272	-66.516137
667.960065	-66.468079
668.108925	-66.420834
668.257851	-66.374585
668.406843	-66.329927
668.555902	-66.287270
668.705027	-66.246429
668.854219	-66.207868
669.003478	-66.172181
669.152803	-66.139509
669.302195	-66.109685
669.451653	-66.082559
669.601179	-66.058030
669.750771	-66.036392
669.900430	-66.017477
670.050156	-66.001074
670.199949	-65.987100
670.349808	-65.975635
670.499735	-65.966772
670.649729	-65.959728
670.799790	-65.954543
670.949918	-65.951853
671.100114	-65.951909
671.250377	-65.954146
671.400707	-65.958447
671.551104	-65.965130
671.701569	-65.973984
671.852101	-65.984443
672.002700	-65.996422
672.153368	-66.009894
672.304102	-66.024732
672.454905	-66.040566
672.605775	-66.056886
672.756713	-66.072724
672.907718	-66.087718
673.058791	-66.102514
673.209933	-66.116772
673.361142	-66.129806
673.512419	-66.142063
673.663764	-66.154652
673.815177	-66.167025
673.966658	-66.178876
674.118207	-66.191276
674.269825	-66.205122
674.421510	-66.219713
674.573264	-66.235031
674.725086	-66.251028
674.876977	-66.266585
675.028936	-66.280892
675.180963	-66.293934
675.333059	-66.304779
675.485224	-66.312514
675.637457	-66.316728
675.789758	-66.317764
675.942129	-66.315704
676.094568	-66.311380
676.247075	-66.305804
676.399652	-66.299851
676.552298	-66.294175
676.705012	-66.289324
676.857795	-66.285579
677.010648	-66.282949
677.163569	-66.281173
677.316560	-66.278826
677.469619	-66.274419
677.622748	-66.266833
677.775946	-66.255494
677.929214	-66.239799
678.082551	-66.219265
678.235957	-66.194039
678.389432	-66.165253
678.542977	-66.133984
678.696592	-66.101674
678.850276	-66.069834
679.004030	-66.040109
679.157853	-66.013356
679.311746	-65.989607
679.465709	-65.969117
679.619742	-65.951276
679.773844	-65.934623
679.928017	-65.917519
680.082259	-65.899105
680.236571	-65.878216
680.390954	-65.853542
680.545406	-65.824877
680.699929	-65.792543
680.854522	-65.758058
681.009185	-65.722300
681.163918	-65.687144
681.318722	-65.654359
681.473596	-65.625497
681.628540	-65.601172
681.783555	-65.581690
681.938641	-65.566896
682.093797	-65.555731
682.249023	-65.546674
682.404321	-65.538291
682.559689	-65.529312
682.715128	-65.518245
682.870637	-65.503734
683.026218	-65.485701
683.181869	-65.464763
683.337591	-65.442184
683.493385	-65.418669
683.649249	-65.395710
683.805185	-65.374687
683.961191	-65.356721
684.117269	-65.342210
684.273418	-65.330885
684.429639	-65.322159
684.585930	-65.314380
684.742294	-65.306374
684.898728	-65.296637
685.055234	-65.283714
685.211812	-65.266602
685.368461	-65.245487
685.525182	-65.220719
685.681975	-65.193095
685.838839	-65.163523
685.995775	-65.134198
686.152783	-65.106349
686.309863	-65.080965
686.467014	-65.058646
686.624238	-65.039679
686.781534	-65.023503
686.938902	-65.009000
687.096342	-64.994844
687.253854	-64.979198
687.411438	-64.961091
687.569095	-64.940343
687.726824	-64.916718
687.884626	-64.890094
688.042499	-64.861646
688.200446	-64.832761
688.358465	-64.804838
688.516556	-64.778793
688.674720	-64.755852
688.832957	-64.735987
688.991266	-64.719196
689.149649	-64.705111
689.308104	-64.692826
689.466632	-64.680922
689.625233	-64.668291
689.783906	-64.654374
689.942653	-64.638099
690.101473	-64.619230
690.260367	-64.598385
690.419333	-64.576041
690.578372	-64.552669
690.737485	-64.529323
690.896672	-64.507515
691.055931	-64.487600
691.215264	-64.470028
691.374671	-64.454719
691.534151	-64.441074
691.693704	-64.428608
691.853332	-64.416863
692.013033	-64.405122
692.172807	-64.392322
692.332656	-64.377782
692.492578	-64.360678
692.652575	-64.341392
692.812645	-64.320167
692.972789	-64.297209
693.133007	-64.272802
693.293300	-64.247185
693.453666	-64.220579
693.614107	-64.193862
693.774622	-64.167113
693.935211	-64.140215
694.095875	-64.112870
694.256613	-64.084536
694.417426	-64.054345
694.578313	-64.021684
694.739274	-63.986251
694.900311	-63.947724
695.061421	-63.905635
695.222607	-63.859882
695.383868	-63.811258
695.545203	-63.760011
695.706613	-63.707001
695.868098	-63.652900
696.029658	-63.598382
696.191293	-63.543679
696.353003	-63.489148
696.514789	-63.434856
696.676649	-63.380226
696.838585	-63.324712
697.000596	-63.267859
697.162682	-63.209396
697.324844	-63.148654
697.487081	-63.085430
697.649394	-63.020230
697.811782	-62.953644
697.974246	-62.886404
698.136786	-62.819199
698.299401	-62.752551
698.462092	-62.687016
698.624859	-62.622591
698.787702	-62.559667
698.950621	-62.497929
699.113616	-62.436536
699.276686	-62.374419
699.439833	-62.311374
699.603056	-62.247534
699.766355	-62.182903
699.929731	-62.117381
700.093183	-62.051344
700.256711	-61.985586
700.420315	-61.921053
700.583996	-61.858274
700.747754	-61.797524
700.911588	-61.738886
701.075499	-61.682309
701.239486	-61.627065
701.403550	-61.572426
701.567691	-61.517692
701.731909	-61.462980
701.896203	-61.407720
702.060575	-61.351961
702.225024	-61.296058
702.389549	-61.241188
702.554152	-61.188260
702.718832	-61.137898
702.883589	-61.090315
703.048424	-61.045838
703.213335	-61.004311
703.378324	-60.965274
703.543391	-60.927554
703.708535	-60.890550
703.873757	-60.853823
704.039056	-60.817089
704.204433	-60.780181
704.369887	-60.743527
704.535420	-60.707839
704.701030	-60.673623
704.866718	-60.641366
705.032484	-60.611823
705.198328	-60.585151
705.364250	-60.561348
705.530250	-60.539907
705.696328	-60.520566
705.862485	-60.502693
706.028720	-60.485320
706.195033	-60.468215
706.361424	-60.451351
706.527894	-60.435110
706.694442	-60.419765
706.861069	-60.405900
707.027775	-60.394350
707.194559	-60.385562
707.361422	-60.379905
707.528363	-60.377312
707.695384	-60.377649
707.862483	-60.380507
708.029661	-60.385512
708.196918	-60.392467
708.364254	-60.401119
708.531670	-60.411175
708.699164	-60.422662
708.866738	-60.436220
709.034391	-60.452195
709.202123	-60.470799
709.369935	-60.491861
709.537826	-60.515749
709.705796	-60.542086
709.873847	-60.570876
710.041976	-60.601912
710.210186	-60.634851
710.378475	-60.669452
710.546844	-60.705875
710.715292	-60.744359
710.883821	-60.784957
711.052429	-60.827690
711.221118	-60.872577
711.389887	-60.919729
711.558735	-60.969466
711.727664	-61.021603
711.896673	-61.076219
712.065763	-61.132996
712.234932	-61.192265
712.404183	-61.254694
712.573513	-61.320241
712.742924	-61.388493
712.912416	-61.458677
713.081988	-61.530648
713.251641	-61.603930
713.421375	-61.677766
713.591190	-61.751229
713.761085	-61.824118
713.931061	-61.896497
714.101119	-61.968322
714.271257	-62.040074
714.441476	-62.111933
714.611777	-62.184319
714.782159	-62.256709
714.952622	-62.329251
715.123166	-62.400852
715.293792	-62.470576
715.464499	-62.537753
715.635288	-62.601636
715.806158	-62.661738
715.977110	-62.718119
716.148143	-62.770802
716.319259	-62.819551
716.490456	-62.864638
716.661735	-62.906236
716.833096	-62.943841
717.004538	-62.976258
717.176063	-63.003084
717.347670	-63.023757
717.519359	-63.037420
717.691130	-63.044016
717.862984	-63.042939
718.034920	-63.034553
718.206938	-63.019071
718.379039	-62.997035
718.551222	-62.968383
718.723488	-62.932888
718.895836	-62.890323
719.068267	-62.840687
719.240781	-62.783882
719.413377	-62.720050
719.586057	-62.649585
719.758819	-62.573038
719.931664	-62.491218
720.104593	-62.404808
720.277604	-62.314345
720.450699	-62.220701
720.623876	-62.124457
720.797137	-62.025172
720.970482	-61.923244
721.143910	-61.819129
721.317421	-61.713085
721.491016	-61.605466
721.664694	-61.497020
721.838456	-61.388526
722.012302	-61.280668
722.186231	-61.173697
722.360244	-61.067763
722.534342	-60.963282
722.708523	-60.859878
722.882788	-60.757065
723.057137	-60.655043
723.231570	-60.554599
723.406088	-60.456468
723.580689	-60.361177
723.755375	-60.268952
723.930146	-60.180642
724.105000	-60.095975
724.279940	-60.014712
724.454963	-59.936585
724.630072	-59.861524
724.805265	-59.789601
724.980543	-59.721459
725.155905	-59.658034
725.331353	-59.599778
725.506885	-59.547397
725.682503	-59.501291
725.858205	-59.461078
726.033993	-59.426448
726.209865	-59.396822
726.385823	-59.372096
726.561866	-59.352064
726.737995	-59.336927
726.914209	-59.327304
727.090508	-59.323992
727.266893	-59.327295
727.443364	-59.337433
727.619920	-59.353967
727.796562	-59.376232
727.973290	-59.403491
728.150103	-59.434989
728.327003	-59.470446
728.503988	-59.510329
728.681060	-59.555414
728.858218	-59.606937
729.035461	-59.666147
729.212791	-59.733652
729.390208	-59.809717
729.567710	-59.893571
