# 2022-03-22_12.49.29
# shape = sech2
# FWHM_ps = 0.11
# carrier_nm = 1542
# frep_MHz = 12126
# pow_mW = 8000
# GDD = 0.0
# propa_len = 0.15311111111111111
# untap_len = 0.01
# taper_len = 0.09311111111111112
# waist_len = 0.02
# uptap_len = 0.02
# untap_scale = 1.0
# waist_scale = 0.2578947368421053
# workingDir = NL_20110305_12 (Spirou)
# axis = slow
# window_ps = 10.0
# steps = 200
# points = 21700
# 
# wavelength [nm]	 power spectral density [dB]
600.043425	-90.931086
600.163550	-90.688456
600.283723	-90.512669
600.403943	-90.403521
600.524212	-90.354499
600.644529	-90.351472
600.764895	-90.372608
600.885308	-90.391882
601.005770	-90.381700
601.126280	-90.320393
601.246839	-90.196191
601.367446	-90.009647
601.488101	-89.774192
601.608804	-89.511206
601.729557	-89.243870
601.850357	-88.993115
601.971206	-88.774216
602.092104	-88.596786
602.213050	-88.466716
602.334045	-88.384219
602.455089	-88.340415
602.576181	-88.321016
602.697322	-88.311627
602.818511	-88.296316
602.939749	-88.254856
603.061036	-88.171460
603.182372	-88.041171
603.303757	-87.867220
603.425191	-87.657217
603.546673	-87.426354
603.668204	-87.194977
603.789785	-86.979554
603.911414	-86.791091
604.033092	-86.638458
604.154820	-86.527466
604.276596	-86.457183
604.398422	-86.422221
604.520297	-86.413372
604.642220	-86.415423
604.764193	-86.410631
604.886216	-86.384005
605.008287	-86.324600
605.130408	-86.223423
605.252578	-86.079796
605.374798	-85.903857
605.497066	-85.710634
605.619385	-85.515300
605.741752	-85.333153
605.864169	-85.176795
605.986636	-85.054186
606.109152	-84.969435
606.231718	-84.921008
606.354333	-84.900996
606.476998	-84.899850
606.599712	-84.908013
606.722476	-84.911999
606.845290	-84.896289
606.968154	-84.851461
607.091067	-84.774406
607.214030	-84.663731
607.337043	-84.522626
607.460106	-84.363683
607.583219	-84.202544
607.706381	-84.050045
607.829594	-83.913323
607.952856	-83.798653
608.076169	-83.710301
608.199531	-83.648742
608.322944	-83.611289
608.446407	-83.592702
608.569920	-83.585613
608.693483	-83.582870
608.817096	-83.576516
608.940759	-83.557737
609.064473	-83.520141
609.188237	-83.462544
609.312051	-83.385103
609.435916	-83.288774
609.559831	-83.180174
609.683796	-83.068414
609.807812	-82.959091
609.931878	-82.857288
610.055995	-82.771217
610.180162	-82.706968
610.304380	-82.665475
610.428648	-82.646957
610.552967	-82.652550
610.677337	-82.678690
610.801757	-82.717267
610.926228	-82.759896
611.050750	-82.799836
611.175323	-82.828740
611.299946	-82.838172
611.424620	-82.824117
611.549345	-82.787188
611.674121	-82.730444
611.798948	-82.659836
611.923826	-82.584414
612.048755	-82.513099
612.173734	-82.452483
612.298765	-82.408161
612.423847	-82.383612
612.548980	-82.378966
612.674165	-82.391630
612.799400	-82.417813
612.924687	-82.451603
613.050025	-82.486733
613.175414	-82.518095
613.300854	-82.540841
613.426346	-82.549624
613.551889	-82.541764
613.677484	-82.517361
613.803130	-82.477499
613.928827	-82.425572
614.054576	-82.368924
614.180377	-82.315229
614.306229	-82.268910
614.432132	-82.233709
614.558087	-82.214516
614.684094	-82.214172
614.810153	-82.232214
614.936263	-82.267616
615.062425	-82.320702
615.188639	-82.389368
615.314904	-82.469277
615.441222	-82.555668
615.567591	-82.644024
615.694012	-82.727268
615.820486	-82.798374
615.947011	-82.853747
616.073588	-82.891825
616.200217	-82.912921
616.326898	-82.920257
616.453632	-82.919769
616.580417	-82.917778
616.707255	-82.921280
616.834144	-82.936043
616.961086	-82.964582
617.088081	-83.008183
617.215127	-83.067688
617.342226	-83.141344
617.469378	-83.225961
617.596581	-83.317972
617.723837	-83.412397
617.851146	-83.502434
617.978507	-83.582729
618.105920	-83.648468
618.233386	-83.694849
618.360905	-83.722023
618.488476	-83.734199
618.616100	-83.735153
618.743777	-83.729425
618.871506	-83.724862
618.999288	-83.726591
619.127123	-83.736490
619.255011	-83.758908
619.382951	-83.798600
619.510945	-83.855787
619.638991	-83.931256
619.767090	-84.028676
619.895243	-84.147184
620.023448	-84.282078
620.151706	-84.429724
620.280017	-84.585611
620.408382	-84.741616
620.536799	-84.891018
620.665270	-85.029012
620.793794	-85.151112
620.922371	-85.254734
621.051002	-85.339631
621.179686	-85.405928
621.308423	-85.454970
621.437213	-85.491857
621.566057	-85.524150
621.694954	-85.559767
621.823905	-85.605401
621.952909	-85.665954
622.081967	-85.744363
622.211079	-85.841146
622.340244	-85.954179
622.469462	-86.080900
622.598735	-86.218954
622.728061	-86.365681
622.857441	-86.517849
622.986874	-86.675425
623.116361	-86.837762
623.245903	-87.002842
623.375498	-87.169918
623.505147	-87.340796
623.634850	-87.515059
623.764606	-87.692723
623.894417	-87.874058
624.024282	-88.058317
624.154201	-88.245246
624.284174	-88.435688
624.414202	-88.628760
624.544283	-88.824229
624.674419	-89.025097
624.804609	-89.233128
624.934853	-89.451464
625.065151	-89.686160
625.195504	-89.942432
625.325911	-90.219511
625.456373	-90.518338
625.586889	-90.840638
625.717460	-91.185447
625.848085	-91.550564
625.978764	-91.935368
626.109498	-92.336746
626.240287	-92.749347
626.371131	-93.170674
626.502029	-93.599064
626.632982	-94.028919
626.763989	-94.457399
626.895052	-94.890451
627.026169	-95.331342
627.157341	-95.779446
627.288568	-96.235533
627.419850	-96.696356
627.551187	-97.159267
627.682579	-97.626741
627.814026	-98.098684
627.945528	-98.567339
628.077085	-99.024744
628.208697	-99.459262
628.340364	-99.851761
628.472087	-100.184494
628.603865	-100.433112
628.735698	-100.567573
628.867586	-100.570652
628.999530	-100.439013
629.131529	-100.182659
629.263584	-99.830774
629.395694	-99.424756
629.527859	-98.994353
629.660080	-98.557981
629.792357	-98.129866
629.924689	-97.711420
630.057077	-97.298060
630.189520	-96.890739
630.322019	-96.482069
630.454574	-96.049068
630.587184	-95.574035
630.719851	-95.056511
630.852573	-94.500648
630.985351	-93.912869
631.118185	-93.306312
631.251075	-92.695420
631.384021	-92.088175
631.517023	-91.493538
631.650081	-90.924781
631.783195	-90.389421
631.916365	-89.889514
632.049592	-89.428706
632.182874	-89.010479
632.316213	-88.635260
632.449608	-88.303139
632.583059	-88.014194
632.716567	-87.767844
632.850131	-87.562435
632.983751	-87.392832
633.117428	-87.253034
633.251161	-87.135402
633.384951	-87.029862
633.518797	-86.925436
633.652700	-86.810371
633.786660	-86.672087
633.920676	-86.502037
634.054749	-86.298011
634.188879	-86.060635
634.323065	-85.794793
634.457308	-85.507949
634.591608	-85.207412
634.725965	-84.902512
634.860379	-84.605782
634.994850	-84.326326
635.129377	-84.068453
635.263962	-83.835848
635.398604	-83.632012
635.533303	-83.457343
635.668058	-83.309572
635.802872	-83.187124
635.937742	-83.089991
636.072669	-83.014638
636.207654	-82.956510
636.342696	-82.915621
636.477796	-82.889772
636.612953	-82.870900
636.748167	-82.852326
636.883439	-82.828303
637.018768	-82.789627
637.154155	-82.729240
637.289599	-82.644296
637.425101	-82.532148
637.560660	-82.392630
637.696277	-82.230620
637.831952	-82.052302
637.967685	-81.863123
638.103475	-81.669076
638.239324	-81.476849
638.375230	-81.293630
638.511194	-81.126081
638.647215	-80.980444
638.783295	-80.861573
638.919433	-80.771288
639.055629	-80.708029
639.191883	-80.669766
639.328195	-80.655286
639.464565	-80.663194
639.600994	-80.690381
639.737481	-80.732972
639.874025	-80.787023
640.010629	-80.847521
640.147290	-80.908259
640.284010	-80.963693
640.420789	-81.008071
640.557625	-81.033922
640.694521	-81.034446
640.831474	-81.006731
640.968487	-80.950671
641.105558	-80.867424
641.242687	-80.760512
641.379876	-80.633844
641.517123	-80.491490
641.654429	-80.339467
641.791793	-80.185507
641.929216	-80.037236
642.066699	-79.901573
642.204240	-79.783719
642.341840	-79.687536
642.479499	-79.616361
642.617217	-79.571339
642.754994	-79.552281
642.892830	-79.559851
643.030726	-79.594415
643.168680	-79.656225
643.306694	-79.744691
643.444767	-79.858979
643.582899	-79.996573
643.721091	-80.154348
643.859342	-80.328714
643.997652	-80.513612
644.136022	-80.701510
644.274451	-80.886748
644.412940	-81.062543
644.551488	-81.220795
644.690096	-81.357514
644.828763	-81.468907
644.967490	-81.547649
645.106277	-81.589337
645.245124	-81.597499
645.384030	-81.577981
645.522997	-81.536410
645.662023	-81.482524
645.801109	-81.426749
645.940255	-81.374341
646.079460	-81.328235
646.218726	-81.293179
646.358052	-81.274582
646.497438	-81.276080
646.636884	-81.301751
646.776391	-81.353532
646.915957	-81.430969
647.055584	-81.533968
647.195271	-81.661047
647.335019	-81.808599
647.474826	-81.973221
647.614695	-82.152207
647.754623	-82.342018
647.894612	-82.537281
648.034662	-82.731037
648.174772	-82.918183
648.314943	-83.095168
648.455174	-83.256665
648.595466	-83.395598
648.735819	-83.507929
648.876233	-83.596690
649.016707	-83.666785
649.157242	-83.721417
649.297838	-83.761976
649.438495	-83.791225
649.579213	-83.817462
649.719992	-83.848168
649.860832	-83.886188
650.001733	-83.933755
650.142695	-83.999110
650.283718	-84.093157
650.424803	-84.219124
650.565949	-84.375758
650.707156	-84.565797
650.848424	-84.793672
650.989754	-85.060650
651.131145	-85.368138
651.272597	-85.720462
651.414111	-86.121261
651.555687	-86.570331
651.697324	-87.064727
651.839022	-87.598800
651.980782	-88.165855
652.122604	-88.763439
652.264488	-89.387989
652.406433	-90.030492
652.548441	-90.676760
652.690510	-91.307596
652.832640	-91.897517
652.974833	-92.432939
653.117088	-92.914960
653.259405	-93.339840
653.401784	-93.689774
653.544224	-93.956811
653.686727	-94.147397
653.829293	-94.262248
653.971920	-94.300559
654.114609	-94.267751
654.257361	-94.168760
654.400175	-93.998817
654.543052	-93.756241
654.685991	-93.455609
654.828992	-93.112649
654.972056	-92.729569
655.115183	-92.309079
655.258372	-91.863505
655.401623	-91.404886
655.544937	-90.939180
655.688314	-90.477487
655.831754	-90.031771
655.975256	-89.604332
656.118822	-89.193968
656.262450	-88.801883
656.406141	-88.427784
656.549894	-88.070597
656.693711	-87.730773
656.837591	-87.414284
656.981534	-87.120547
657.125540	-86.844308
657.269610	-86.583269
657.413742	-86.341574
657.557938	-86.124421
657.702196	-85.932640
657.846519	-85.766355
657.990904	-85.627329
658.135353	-85.517622
658.279866	-85.435345
658.424441	-85.373179
658.569081	-85.324877
658.713784	-85.288007
658.858550	-85.260606
659.003381	-85.233524
659.148274	-85.196545
659.293232	-85.141923
659.438253	-85.062093
659.583339	-84.948697
659.728488	-84.796986
659.873701	-84.609466
660.018978	-84.391265
660.164318	-84.145755
660.309723	-83.875151
660.455192	-83.585596
660.600725	-83.284682
660.746323	-82.981895
660.891984	-82.685968
661.037710	-82.400494
661.183500	-82.128220
661.329354	-81.874488
661.475272	-81.645069
661.621255	-81.441307
661.767303	-81.264633
661.913415	-81.118191
662.059591	-81.001532
662.205833	-80.912606
662.352138	-80.851098
662.498509	-80.816960
662.644944	-80.806140
662.791443	-80.812786
662.938008	-80.831633
663.084638	-80.857117
663.231332	-80.884877
663.378091	-80.911676
663.524915	-80.931709
663.671804	-80.940331
663.818759	-80.937244
663.965778	-80.927166
664.112863	-80.912683
664.260012	-80.893731
664.407227	-80.872118
664.554507	-80.852356
664.701853	-80.834944
664.849264	-80.820154
664.996740	-80.809319
665.144282	-80.802578
665.291889	-80.796099
665.439561	-80.786811
665.587300	-80.773197
665.735103	-80.753544
665.882973	-80.726927
666.030908	-80.692998
666.178909	-80.649799
666.326976	-80.595035
666.475109	-80.529373
666.623307	-80.454393
666.771571	-80.370346
666.919902	-80.279897
667.068298	-80.187341
667.216761	-80.095848
667.365289	-80.008008
667.513884	-79.928740
667.662545	-79.861971
667.811272	-79.812725
667.960065	-79.785884
668.108925	-79.784065
668.257851	-79.806129
668.406843	-79.851203
668.555902	-79.918820
668.705027	-80.006387
668.854219	-80.110446
669.003478	-80.225387
669.152803	-80.345538
669.302195	-80.465305
669.451653	-80.582381
669.601179	-80.694770
669.750771	-80.802606
669.900430	-80.907549
670.050156	-81.010208
670.199949	-81.111323
670.349808	-81.214930
670.499735	-81.325663
670.649729	-81.446850
670.799790	-81.579514
670.949918	-81.723639
671.100114	-81.876915
671.250377	-82.039193
671.400707	-82.212851
671.551104	-82.396331
671.701569	-82.583075
671.852101	-82.766435
672.002700	-82.941268
672.153368	-83.100650
672.304102	-83.240121
672.454905	-83.358065
672.605775	-83.452491
672.756713	-83.520981
672.907718	-83.565017
673.058791	-83.591766
673.209933	-83.608704
673.361142	-83.625851
673.512419	-83.651459
673.663764	-83.693617
673.815177	-83.757709
673.966658	-83.851106
674.118207	-83.975110
674.269825	-84.129979
674.421510	-84.315238
674.573264	-84.530421
674.725086	-84.768140
674.876977	-85.017851
675.028936	-85.268714
675.180963	-85.513167
675.333059	-85.746195
675.485224	-85.963234
675.637457	-86.154400
675.789758	-86.313900
675.942129	-86.443983
676.094568	-86.552280
676.247075	-86.648814
676.399652	-86.741776
676.552298	-86.836688
676.705012	-86.938767
676.857795	-87.058977
677.010648	-87.206870
677.163569	-87.384476
677.316560	-87.586488
677.469619	-87.806440
677.622748	-88.040160
677.775946	-88.277694
677.929214	-88.512266
678.082551	-88.739001
678.235957	-88.944536
678.389432	-89.112387
678.542977	-89.234752
678.696592	-89.309360
678.850276	-89.330255
679.004030	-89.293569
679.157853	-89.203247
679.311746	-89.061368
679.465709	-88.871861
679.619742	-88.645722
679.773844	-88.403564
679.928017	-88.160680
680.082259	-87.925006
680.236571	-87.701376
680.390954	-87.494902
680.545406	-87.309436
680.699929	-87.146339
680.854522	-87.001215
681.009185	-86.868822
681.163918	-86.738772
681.318722	-86.598934
681.473596	-86.444562
681.628540	-86.272047
681.783555	-86.071814
681.938641	-85.840721
682.093797	-85.585039
682.249023	-85.311994
682.404321	-85.028405
682.559689	-84.744774
682.715128	-84.467858
682.870637	-84.204131
683.026218	-83.961599
683.181869	-83.743227
683.337591	-83.545538
683.493385	-83.365719
683.649249	-83.203964
683.805185	-83.056158
683.961191	-82.912429
684.117269	-82.768718
684.273418	-82.626102
684.429639	-82.479462
684.585930	-82.321792
684.742294	-82.153003
684.898728	-81.975061
685.055234	-81.786850
685.211812	-81.593078
685.368461	-81.402358
685.525182	-81.217683
685.681975	-81.043642
685.838839	-80.886937
685.995775	-80.754766
686.152783	-80.652246
686.309863	-80.577634
686.467014	-80.525712
686.624238	-80.492507
686.781534	-80.473550
686.938902	-80.461099
687.096342	-80.445746
687.253854	-80.417299
687.411438	-80.369646
687.569095	-80.300168
687.726824	-80.208860
687.884626	-80.098054
688.042499	-79.972987
688.200446	-79.840419
688.358465	-79.709311
688.516556	-79.587440
688.674720	-79.482046
688.832957	-79.398604
688.991266	-79.339902
689.149649	-79.304295
689.308104	-79.290497
689.466632	-79.295583
689.625233	-79.316888
689.783906	-79.347943
689.942653	-79.380878
690.101473	-79.407189
690.260367	-79.419970
690.419333	-79.414696
690.578372	-79.389157
690.737485	-79.342734
690.896672	-79.278632
691.055931	-79.202826
691.215264	-79.122499
691.374671	-79.047995
691.534151	-78.986300
691.693704	-78.941862
691.853332	-78.916205
692.013033	-78.910741
692.172807	-78.925112
692.332656	-78.955255
692.492578	-78.993244
692.652575	-79.030939
692.812645	-79.063271
692.972789	-79.085502
693.133007	-79.091257
693.293300	-79.078496
693.453666	-79.049915
693.614107	-79.008670
693.774622	-78.957841
693.935211	-78.905883
694.095875	-78.862325
694.256613	-78.829273
694.417426	-78.807281
694.578313	-78.801364
694.739274	-78.812802
694.900311	-78.837082
695.061421	-78.870174
695.222607	-78.911724
695.383868	-78.952465
695.545203	-78.982904
695.706613	-79.007219
695.868098	-79.028616
696.029658	-79.039238
696.191293	-79.035324
696.353003	-79.031756
696.514789	-79.038146
696.676649	-79.047704
696.838585	-79.063543
697.000596	-79.104267
697.162682	-79.178640
697.324844	-79.277159
697.487081	-79.396123
697.649394	-79.540029
697.811782	-79.702381
697.974246	-79.867296
698.136786	-80.021254
698.299401	-80.155338
698.462092	-80.258528
698.624859	-80.326927
698.787702	-80.366475
698.950621	-80.380189
699.113616	-80.369523
699.276686	-80.344306
699.439833	-80.322725
699.603056	-80.315828
699.766355	-80.323215
699.929731	-80.346847
700.093183	-80.400132
700.256711	-80.486080
700.420315	-80.589377
700.583996	-80.697687
700.747754	-80.814940
700.911588	-80.934648
701.075499	-81.034501
701.239486	-81.102178
701.403550	-81.147220
701.567691	-81.166592
701.731909	-81.148697
701.896203	-81.104504
702.060575	-81.054043
702.225024	-81.003305
702.389549	-80.952697
702.554152	-80.922481
702.718832	-80.924659
702.883589	-80.950788
703.048424	-80.989311
703.213335	-81.043489
703.378324	-81.107641
703.543391	-81.154153
703.708535	-81.164447
703.873757	-81.144024
704.039056	-81.103455
704.204433	-81.033189
704.369887	-80.935339
704.535420	-80.838686
704.701030	-80.763854
704.866718	-80.711114
705.032484	-80.684938
705.198328	-80.693626
705.364250	-80.737315
705.530250	-80.807176
705.696328	-80.893219
705.862485	-80.987336
706.028720	-81.080888
706.195033	-81.165935
706.361424	-81.228661
706.527894	-81.262147
706.694442	-81.269616
706.861069	-81.257404
707.027775	-81.227828
707.194559	-81.192991
707.361422	-81.169827
707.528363	-81.168708
707.695384	-81.194111
707.862483	-81.253618
708.029661	-81.354230
708.196918	-81.489257
708.364254	-81.649537
708.531670	-81.822848
708.699164	-81.990384
708.866738	-82.142207
709.034391	-82.268973
709.202123	-82.348391
709.369935	-82.370801
709.537826	-82.357275
709.705796	-82.327083
709.873847	-82.280151
710.041976	-82.225852
710.210186	-82.190552
710.378475	-82.187866
710.546844	-82.213382
710.715292	-82.261102
710.883821	-82.328074
711.052429	-82.404802
711.221118	-82.482857
711.389887	-82.548194
711.558735	-82.581322
711.727664	-82.575940
711.896673	-82.533217
712.065763	-82.446337
712.234932	-82.317065
712.404183	-82.166389
712.573513	-82.011293
712.742924	-81.860760
712.912416	-81.723466
713.081988	-81.613492
713.251641	-81.537632
713.421375	-81.490687
713.591190	-81.458968
713.761085	-81.439190
713.931061	-81.423468
714.101119	-81.390861
714.271257	-81.319538
714.441476	-81.209794
714.611777	-81.072285
714.782159	-80.903490
714.952622	-80.704754
715.123166	-80.503034
715.293792	-80.318575
715.464499	-80.153123
715.635288	-80.013046
715.806158	-79.907974
715.977110	-79.830415
716.148143	-79.775012
716.319259	-79.734703
716.490456	-79.696829
716.661735	-79.643220
716.833096	-79.566265
717.004538	-79.467824
717.176063	-79.342895
717.347670	-79.192362
717.519359	-79.032655
717.691130	-78.878859
717.862984	-78.740933
718.034920	-78.626565
718.206938	-78.538949
718.379039	-78.477121
718.551222	-78.438372
718.723488	-78.415858
718.895836	-78.395011
719.068267	-78.362225
719.240781	-78.315606
719.413377	-78.250437
719.586057	-78.158116
719.758819	-78.044324
719.931664	-77.922762
720.104593	-77.797344
720.277604	-77.673463
720.450699	-77.559072
720.623876	-77.461501
720.797137	-77.381915
720.970482	-77.320021
721.143910	-77.274141
721.317421	-77.236737
721.491016	-77.199172
721.664694	-77.150724
721.838456	-77.079724
722.012302	-76.981361
722.186231	-76.859589
722.360244	-76.721215
722.534342	-76.573987
722.708523	-76.427188
722.882788	-76.294011
723.057137	-76.181382
723.231570	-76.088410
723.406088	-76.014700
723.580689	-75.956335
723.755375	-75.906431
723.930146	-75.853642
724.105000	-75.790709
724.279940	-75.716021
724.454963	-75.627883
724.630072	-75.528610
724.805265	-75.424961
724.980543	-75.323368
725.155905	-75.228952
725.331353	-75.144508
725.506885	-75.072797
725.682503	-75.014945
725.858205	-74.969304
726.033993	-74.930362
726.209865	-74.895373
726.385823	-74.860461
726.561866	-74.820337
726.737995	-74.773061
726.914209	-74.722364
727.090508	-74.668904
727.266893	-74.615924
727.443364	-74.565790
727.619920	-74.521958
727.796562	-74.488587
727.973290	-74.466870
728.150103	-74.453095
728.327003	-74.442314
728.503988	-74.434001
728.681060	-74.422894
728.858218	-74.403426
729.035461	-74.376425
729.212791	-74.343331
729.390208	-74.303102
729.567710	-74.259677
