# 2022-03-21_23.24.49
# shape = sech2
# FWHM_ps = 0.1
# carrier_nm = 1542
# frep_MHz = 12126
# pow_mW = 8000
# GDD = 0.0
# propa_len = 0.12555555555555556
# untap_len = 0.01
# taper_len = 0.06555555555555556
# waist_len = 0.02
# uptap_len = 0.02
# untap_scale = 1.0
# waist_scale = 0.2578947368421053
# workingDir = NL_20110305_12 (Spirou)
# axis = slow
# window_ps = 10.0
# steps = 200
# points = 21700
# 
# wavelength [nm]	 power spectral density [dB]
600.043425	-79.393874
600.163550	-79.472192
600.283723	-79.514851
600.403943	-79.517363
600.524212	-79.486021
600.644529	-79.432443
600.764895	-79.370576
600.885308	-79.315326
601.005770	-79.279533
601.126280	-79.271922
601.246839	-79.297173
601.367446	-79.355210
601.488101	-79.440530
601.608804	-79.542738
601.729557	-79.648088
601.850357	-79.742073
601.971206	-79.811907
602.092104	-79.849156
602.213050	-79.851401
602.334045	-79.822133
602.455089	-79.771167
602.576181	-79.712111
602.697322	-79.660109
602.818511	-79.627814
602.939749	-79.624281
603.061036	-79.654611
603.182372	-79.718547
603.303757	-79.810715
603.425191	-79.922530
603.546673	-80.041992
603.668204	-80.155892
603.789785	-80.250709
603.911414	-80.314342
604.033092	-80.341155
604.154820	-80.332139
604.276596	-80.295230
604.398422	-80.243778
604.520297	-80.191892
604.642220	-80.152964
604.764193	-80.137102
604.886216	-80.151397
605.008287	-80.198572
605.130408	-80.275757
605.252578	-80.376676
605.374798	-80.490517
605.497066	-80.604754
605.619385	-80.708898
605.741752	-80.792716
605.864169	-80.848134
605.986636	-80.872090
606.109152	-80.868903
606.231718	-80.848126
606.354333	-80.820820
606.476998	-80.799661
606.599712	-80.794946
606.722476	-80.813906
606.845290	-80.860792
606.968154	-80.936040
607.091067	-81.036021
607.214030	-81.153902
607.337043	-81.280105
607.460106	-81.404026
607.583219	-81.513242
607.706381	-81.596303
607.829594	-81.646708
607.952856	-81.664334
608.076169	-81.652202
608.199531	-81.615634
608.322944	-81.564480
608.446407	-81.511470
608.569920	-81.469844
608.693483	-81.450080
608.817096	-81.458159
608.940759	-81.496950
609.064473	-81.565848
609.188237	-81.657031
609.312051	-81.759349
609.435916	-81.862941
609.559831	-81.957617
609.683796	-82.034284
609.807812	-82.089686
609.931878	-82.120595
610.055995	-82.126322
610.180162	-82.115392
610.304380	-82.099961
610.428648	-82.089584
610.552967	-82.091991
610.677337	-82.112814
610.801757	-82.154196
610.926228	-82.216719
611.050750	-82.297578
611.175323	-82.388657
611.299946	-82.480887
611.424620	-82.566644
611.549345	-82.638425
611.674121	-82.688557
611.798948	-82.709310
611.923826	-82.698123
612.048755	-82.660274
612.173734	-82.604518
612.298765	-82.537532
612.423847	-82.464125
612.548980	-82.390942
612.674165	-82.328890
612.799400	-82.286065
612.924687	-82.262010
613.050025	-82.255255
613.175414	-82.263909
613.300854	-82.283903
613.426346	-82.313002
613.551889	-82.344847
613.677484	-82.370681
613.803130	-82.386351
613.928827	-82.390539
614.054576	-82.384327
614.180377	-82.370572
614.306229	-82.347914
614.432132	-82.319418
614.558087	-82.292187
614.684094	-82.264750
614.810153	-82.237466
614.936263	-82.213816
615.062425	-82.192619
615.188639	-82.173360
615.314904	-82.156145
615.441222	-82.136368
615.567591	-82.110639
615.694012	-82.077369
615.820486	-82.036133
615.947011	-81.991876
616.073588	-81.949404
616.200217	-81.911504
616.326898	-81.883694
616.453632	-81.868477
616.580417	-81.864420
616.707255	-81.870410
616.834144	-81.885473
616.961086	-81.906772
617.088081	-81.930944
617.215127	-81.956256
617.342226	-81.979148
617.469378	-81.994954
617.596581	-82.000917
617.723837	-81.998655
617.851146	-81.989589
617.978507	-81.976692
618.105920	-81.963171
618.233386	-81.951363
618.360905	-81.942469
618.488476	-81.935983
618.616100	-81.935731
618.743777	-81.945818
618.871506	-81.964652
618.999288	-81.990167
619.127123	-82.021299
619.255011	-82.049582
619.382951	-82.069471
619.510945	-82.077778
619.638991	-82.069467
619.767090	-82.044886
619.895243	-82.002253
620.023448	-81.943357
620.151706	-81.875193
620.280017	-81.803303
620.408382	-81.734472
620.536799	-81.679052
620.665270	-81.643399
620.793794	-81.629068
620.922371	-81.637334
621.051002	-81.666694
621.179686	-81.713265
621.308423	-81.772315
621.437213	-81.837073
621.566057	-81.897380
621.694954	-81.942856
621.823905	-81.961795
621.952909	-81.946135
622.081967	-81.893934
622.211079	-81.807775
622.340244	-81.695580
622.469462	-81.569928
622.598735	-81.440545
622.728061	-81.316332
622.857441	-81.206545
622.986874	-81.116395
623.116361	-81.052718
623.245903	-81.020546
623.375498	-81.022551
623.505147	-81.058865
623.634850	-81.126589
623.764606	-81.218598
623.894417	-81.321801
624.024282	-81.422282
624.154201	-81.509059
624.284174	-81.572270
624.414202	-81.602183
624.544283	-81.591346
624.674419	-81.537500
624.804609	-81.444867
624.934853	-81.325048
625.065151	-81.190118
625.195504	-81.053449
625.325911	-80.927325
625.456373	-80.821801
625.586889	-80.744746
625.717460	-80.700613
625.848085	-80.693705
625.978764	-80.723248
626.109498	-80.784184
626.240287	-80.870155
626.371131	-80.975101
626.502029	-81.091280
626.632982	-81.205742
626.763989	-81.307484
626.895052	-81.387330
627.026169	-81.434435
627.157341	-81.441900
627.288568	-81.413102
627.419850	-81.356033
627.551187	-81.274901
627.682579	-81.178404
627.814026	-81.078338
627.945528	-80.988622
628.077085	-80.917282
628.208697	-80.869592
628.340364	-80.853610
628.472087	-80.870879
628.603865	-80.917856
628.735698	-80.992792
628.867586	-81.095114
628.999530	-81.216621
629.131529	-81.340447
629.263584	-81.452275
629.395694	-81.542688
629.527859	-81.599348
629.660080	-81.612838
629.792357	-81.582054
629.924689	-81.512192
630.057077	-81.409733
630.189520	-81.281596
630.322019	-81.142074
630.454574	-81.007488
630.587184	-80.888411
630.719851	-80.790337
630.852573	-80.719385
630.985351	-80.684162
631.118185	-80.688823
631.251075	-80.728668
631.384021	-80.801431
631.517023	-80.908959
631.650081	-81.047206
631.783195	-81.203702
631.916365	-81.365263
632.049592	-81.522470
632.182874	-81.663389
632.316213	-81.770216
632.449608	-81.832142
632.583059	-81.848391
632.716567	-81.822023
632.850131	-81.752843
632.983751	-81.646594
633.117428	-81.521611
633.251161	-81.394908
633.384951	-81.276480
633.518797	-81.175407
633.652700	-81.105520
633.786660	-81.075048
633.920676	-81.085120
634.054749	-81.137693
634.188879	-81.235971
634.323065	-81.375491
634.457308	-81.548078
634.591608	-81.747310
634.725965	-81.967590
634.860379	-82.197962
634.994850	-82.425878
635.129377	-82.638670
635.263962	-82.816023
635.398604	-82.939551
635.533303	-83.003272
635.668058	-83.011665
635.802872	-82.968020
635.937742	-82.879373
636.072669	-82.756313
636.207654	-82.615759
636.342696	-82.474991
636.477796	-82.348656
636.612953	-82.250954
636.748167	-82.190779
636.883439	-82.172587
637.018768	-82.196404
637.154155	-82.263715
637.289599	-82.376760
637.425101	-82.536955
637.560660	-82.743697
637.696277	-82.989753
637.831952	-83.264701
637.967685	-83.557564
638.103475	-83.857911
638.239324	-84.149907
638.375230	-84.412568
638.511194	-84.631979
638.647215	-84.799345
638.783295	-84.905860
638.919433	-84.946572
639.055629	-84.931535
639.191883	-84.875508
639.328195	-84.789745
639.464565	-84.691551
639.600994	-84.602654
639.737481	-84.536910
639.874025	-84.503122
640.010629	-84.512549
640.147290	-84.575374
640.284010	-84.693728
640.420789	-84.870681
640.557625	-85.110453
640.694521	-85.411545
640.831474	-85.768441
640.968487	-86.179991
641.105558	-86.648249
641.242687	-87.162718
641.379876	-87.706392
641.517123	-88.263260
641.654429	-88.814234
641.791793	-89.333129
641.929216	-89.796322
642.066699	-90.182535
642.204240	-90.475195
642.341840	-90.666170
642.479499	-90.763482
642.617217	-90.791541
642.754994	-90.771050
642.892830	-90.726356
643.030726	-90.680592
643.168680	-90.649378
643.306694	-90.642073
643.444767	-90.677245
643.582899	-90.746159
643.721091	-90.847828
643.859342	-90.979073
643.997652	-91.124511
644.136022	-91.270122
644.274451	-91.403811
644.412940	-91.518602
644.551488	-91.602236
644.690096	-91.647355
644.828763	-91.646875
644.967490	-91.601314
645.106277	-91.517236
645.245124	-91.401517
645.384030	-91.265950
645.522997	-91.118394
645.662023	-90.969136
645.801109	-90.833186
645.940255	-90.726249
646.079460	-90.635867
646.218726	-90.552676
646.358052	-90.473442
646.497438	-90.390050
646.636884	-90.288905
646.776391	-90.149202
646.915957	-89.963695
647.055584	-89.707050
647.195271	-89.368970
647.335019	-88.953993
647.474826	-88.462453
647.614695	-87.893050
647.754623	-87.264383
647.894612	-86.600085
648.034662	-85.920063
648.174772	-85.232638
648.314943	-84.551021
648.455174	-83.884659
648.595466	-83.240193
648.735819	-82.624306
648.876233	-82.046120
649.016707	-81.511625
649.157242	-81.021193
649.297838	-80.573783
649.438495	-80.173164
649.579213	-79.823523
649.719992	-79.524170
649.860832	-79.273770
650.001733	-79.074548
650.142695	-78.926655
650.283718	-78.826761
650.424803	-78.771916
650.565949	-78.760788
650.707156	-78.791181
650.848424	-78.858880
650.989754	-78.960282
651.131145	-79.093792
651.272597	-79.250866
651.414111	-79.418677
651.555687	-79.584873
651.697324	-79.739279
651.839022	-79.863534
651.980782	-79.933229
652.122604	-79.932608
652.264488	-79.856099
652.406433	-79.700515
652.548441	-79.469202
652.690510	-79.174437
652.832640	-78.832815
652.974833	-78.461560
653.117088	-78.080121
653.259405	-77.704831
653.401784	-77.345187
653.544224	-77.006765
653.686727	-76.694600
653.829293	-76.409374
653.971920	-76.152121
654.114609	-75.920849
654.257361	-75.710734
654.400175	-75.522901
654.543052	-75.358721
654.685991	-75.216911
654.828992	-75.096477
654.972056	-74.996985
655.115183	-74.919670
655.258372	-74.865994
655.401623	-74.836604
655.544937	-74.831720
655.688314	-74.848662
655.831754	-74.887164
655.975256	-74.948570
656.118822	-75.030511
656.262450	-75.130953
656.406141	-75.246212
656.549894	-75.374324
656.693711	-75.514808
656.837591	-75.662496
656.981534	-75.813451
657.125540	-75.965941
657.269610	-76.116596
657.413742	-76.261653
657.557938	-76.395310
657.702196	-76.510522
657.846519	-76.601949
657.990904	-76.665988
658.135353	-76.697272
658.279866	-76.695175
658.424441	-76.663513
658.569081	-76.607037
658.713784	-76.533820
658.858550	-76.453406
659.003381	-76.375275
659.148274	-76.305674
659.293232	-76.248222
659.438253	-76.209325
659.583339	-76.192441
659.728488	-76.200066
659.873701	-76.231912
660.018978	-76.285408
660.164318	-76.357803
660.309723	-76.445179
660.455192	-76.543016
660.600725	-76.648329
660.746323	-76.758552
660.891984	-76.872925
661.037710	-76.989637
661.183500	-77.103755
661.329354	-77.213336
661.475272	-77.318939
661.621255	-77.420749
661.767303	-77.519463
661.913415	-77.618012
662.059591	-77.718853
662.205833	-77.821782
662.352138	-77.928509
662.498509	-78.039177
662.644944	-78.152921
662.791443	-78.272192
662.938008	-78.395662
663.084638	-78.518570
663.231332	-78.640848
663.378091	-78.757205
663.524915	-78.862313
663.671804	-78.953683
663.818759	-79.029123
663.965778	-79.091041
664.112863	-79.140492
664.260012	-79.181573
664.407227	-79.216527
664.554507	-79.247463
664.701853	-79.280018
664.849264	-79.319080
664.996740	-79.369130
665.144282	-79.436015
665.291889	-79.521473
665.439561	-79.626183
665.587300	-79.749960
665.735103	-79.892013
665.882973	-80.049736
666.030908	-80.224507
666.178909	-80.417603
666.326976	-80.623711
666.475109	-80.839959
666.623307	-81.063914
666.771571	-81.291459
666.919902	-81.519992
667.068298	-81.743864
667.216761	-81.962360
667.365289	-82.174755
667.513884	-82.375347
667.662545	-82.566383
667.811272	-82.748158
667.960065	-82.918736
668.108925	-83.085806
668.257851	-83.252370
668.406843	-83.420098
668.555902	-83.587715
668.705027	-83.758693
668.854219	-83.935851
669.003478	-84.121840
669.152803	-84.308616
669.302195	-84.487520
669.451653	-84.661696
669.601179	-84.820884
669.750771	-84.951049
669.900430	-85.049989
670.050156	-85.118748
670.199949	-85.153545
670.349808	-85.142317
670.499735	-85.089182
670.649729	-85.007582
670.799790	-84.902942
670.949918	-84.779574
671.100114	-84.649546
671.250377	-84.520961
671.400707	-84.392810
671.551104	-84.267171
671.701569	-84.153113
671.852101	-84.047832
672.002700	-83.944453
672.153368	-83.839390
672.304102	-83.739298
672.454905	-83.643262
672.605775	-83.533996
672.756713	-83.410972
672.907718	-83.284513
673.058791	-83.154289
673.209933	-83.016527
673.361142	-82.867595
673.512419	-82.713319
673.663764	-82.555591
673.815177	-82.391909
673.966658	-82.230004
674.118207	-82.079357
674.269825	-81.935515
674.421510	-81.791888
674.573264	-81.649854
674.725086	-81.512516
674.876977	-81.381753
675.028936	-81.249782
675.180963	-81.117372
675.333059	-80.988101
675.485224	-80.854952
675.637457	-80.714712
675.789758	-80.571477
675.942129	-80.428501
676.094568	-80.285032
676.247075	-80.139204
676.399652	-79.996868
676.552298	-79.863746
676.705012	-79.738343
676.857795	-79.618526
677.010648	-79.507368
677.163569	-79.407439
677.316560	-79.313275
677.469619	-79.220178
677.622748	-79.126130
677.775946	-79.030895
677.929214	-78.930784
678.082551	-78.819419
678.235957	-78.697782
678.389432	-78.567608
678.542977	-78.430425
678.696592	-78.287057
678.850276	-78.140448
679.004030	-77.996233
679.157853	-77.858350
679.311746	-77.728093
679.465709	-77.608625
679.619742	-77.497408
679.773844	-77.390168
679.928017	-77.289132
680.082259	-77.191447
680.236571	-77.093841
680.390954	-76.989774
680.545406	-76.877951
680.699929	-76.759379
680.854522	-76.632392
681.009185	-76.497655
681.163918	-76.359525
681.318722	-76.220721
681.473596	-76.083203
681.628540	-75.950383
681.783555	-75.828564
681.938641	-75.718368
682.093797	-75.622398
682.249023	-75.540227
682.404321	-75.468846
682.559689	-75.408841
682.715128	-75.356808
682.870637	-75.309677
683.026218	-75.262584
683.181869	-75.211760
683.337591	-75.157676
683.493385	-75.098525
683.649249	-75.031717
683.805185	-74.957500
683.961191	-74.883124
684.117269	-74.813109
684.273418	-74.747001
684.429639	-74.689014
684.585930	-74.644606
684.742294	-74.616416
684.898728	-74.604883
685.055234	-74.612133
685.211812	-74.635558
685.368461	-74.670439
685.525182	-74.711462
685.681975	-74.757290
685.838839	-74.805063
685.995775	-74.847694
686.152783	-74.884072
686.309863	-74.915799
686.467014	-74.944450
686.624238	-74.972332
686.781534	-75.003080
686.938902	-75.041144
687.096342	-75.088922
687.253854	-75.150072
687.411438	-75.228800
687.569095	-75.325449
687.726824	-75.438620
687.884626	-75.564969
688.042499	-75.700826
688.200446	-75.842614
688.358465	-75.984297
688.516556	-76.118952
688.674720	-76.241308
688.832957	-76.351055
688.991266	-76.451446
689.149649	-76.542594
689.308104	-76.623645
689.466632	-76.700793
689.625233	-76.784785
689.783906	-76.880316
689.942653	-76.984781
690.101473	-77.102356
690.260367	-77.234259
690.419333	-77.375222
690.578372	-77.523986
690.737485	-77.672768
690.896672	-77.817567
691.055931	-77.946270
691.215264	-78.056278
691.374671	-78.146781
691.534151	-78.213861
691.693704	-78.258020
691.853332	-78.282827
692.013033	-78.298874
692.172807	-78.314857
692.332656	-78.337779
692.492578	-78.370938
692.652575	-78.419457
692.812645	-78.483670
692.972789	-78.564113
693.133007	-78.656560
693.293300	-78.752860
693.453666	-78.842214
693.614107	-78.922389
693.774622	-78.984376
693.935211	-79.018692
694.095875	-79.023379
694.256613	-79.002439
694.417426	-78.962227
694.578313	-78.909264
694.739274	-78.854892
694.900311	-78.811036
695.061421	-78.787477
695.222607	-78.784750
695.383868	-78.808459
695.545203	-78.855494
695.706613	-78.917127
695.868098	-78.988905
696.029658	-79.061645
696.191293	-79.126979
696.353003	-79.176263
696.514789	-79.202598
696.676649	-79.205437
696.838585	-79.189563
697.000596	-79.162777
697.162682	-79.129319
697.324844	-79.101855
697.487081	-79.088419
697.649394	-79.098005
697.811782	-79.129971
697.974246	-79.191147
698.136786	-79.286818
698.299401	-79.406925
698.462092	-79.546159
698.624859	-79.698641
698.787702	-79.856009
698.950621	-80.003123
699.113616	-80.131673
699.276686	-80.234579
699.439833	-80.313772
699.603056	-80.374714
699.766355	-80.418138
699.929731	-80.450501
700.093183	-80.480592
700.256711	-80.523391
700.420315	-80.577986
700.583996	-80.639108
700.747754	-80.713422
700.911588	-80.794812
701.075499	-80.869107
701.239486	-80.919627
701.403550	-80.939000
701.567691	-80.908464
701.731909	-80.817641
701.896203	-80.664481
702.060575	-80.453052
702.225024	-80.191443
702.389549	-79.902566
702.554152	-79.607243
702.718832	-79.320141
702.883589	-79.046441
703.048424	-78.786388
703.213335	-78.538662
703.378324	-78.299339
703.543391	-78.057702
703.708535	-77.802233
703.873757	-77.529275
704.039056	-77.235156
704.204433	-76.916664
704.369887	-76.578881
704.535420	-76.224106
704.701030	-75.862938
704.866718	-75.505953
705.032484	-75.160464
705.198328	-74.831555
705.364250	-74.526954
705.530250	-74.250412
705.696328	-73.997896
705.862485	-73.762424
706.028720	-73.539040
706.195033	-73.318394
706.361424	-73.090475
706.527894	-72.849820
706.694442	-72.591067
706.861069	-72.316381
707.027775	-72.029377
707.194559	-71.736392
707.361422	-71.444240
707.528363	-71.160723
707.695384	-70.891657
707.862483	-70.638594
708.029661	-70.402768
708.196918	-70.184329
708.364254	-69.980163
708.531670	-69.785582
708.699164	-69.595515
708.866738	-69.406546
709.034391	-69.213428
709.202123	-69.013676
709.369935	-68.804621
709.537826	-68.588831
709.705796	-68.369340
709.873847	-68.148261
710.041976	-67.931390
710.210186	-67.721951
710.378475	-67.522834
710.546844	-67.335800
710.715292	-67.160556
710.883821	-66.996452
711.052429	-66.841507
711.221118	-66.692248
711.389887	-66.543956
711.558735	-66.394873
711.727664	-66.242642
711.896673	-66.084801
712.065763	-65.922575
712.234932	-65.758612
712.404183	-65.595278
712.573513	-65.435188
712.742924	-65.282292
712.912416	-65.139739
713.081988	-65.008992
713.251641	-64.889494
713.421375	-64.779881
713.591190	-64.679739
713.761085	-64.586137
713.931061	-64.494659
714.101119	-64.402473
714.271257	-64.309983
714.441476	-64.216290
714.611777	-64.120960
714.782159	-64.024934
714.952622	-63.931613
715.123166	-63.843336
715.293792	-63.761006
715.464499	-63.686822
715.635288	-63.622544
715.806158	-63.568346
715.977110	-63.522723
716.148143	-63.482513
716.319259	-63.445689
716.490456	-63.409608
716.661735	-63.372105
716.833096	-63.330457
717.004538	-63.285741
717.176063	-63.240740
717.347670	-63.196827
717.519359	-63.155391
717.691130	-63.119510
717.862984	-63.091465
718.034920	-63.072004
718.206938	-63.059593
718.379039	-63.053532
718.551222	-63.052422
718.723488	-63.053829
718.895836	-63.054379
719.068267	-63.052392
719.240781	-63.047838
719.413377	-63.040579
719.586057	-63.030347
719.758819	-63.019253
719.931664	-63.009670
720.104593	-63.003357
720.277604	-63.001079
720.450699	-63.003594
720.623876	-63.011252
720.797137	-63.024258
720.970482	-63.041121
721.143910	-63.059215
721.317421	-63.078216
721.491016	-63.097198
721.664694	-63.113897
721.838456	-63.128088
722.012302	-63.140261
722.186231	-63.150768
722.360244	-63.161140
722.534342	-63.171472
722.708523	-63.183418
722.882788	-63.198134
723.057137	-63.216057
723.231570	-63.237892
723.406088	-63.263204
723.580689	-63.289195
723.755375	-63.314755
723.930146	-63.338549
724.105000	-63.358664
724.279940	-63.373906
724.454963	-63.384428
724.630072	-63.391622
724.805265	-63.396099
724.980543	-63.398700
725.155905	-63.401567
725.331353	-63.404950
725.506885	-63.407401
725.682503	-63.407067
725.858205	-63.403159
726.033993	-63.394391
726.209865	-63.376605
726.385823	-63.348192
726.561866	-63.310128
726.737995	-63.262302
726.914209	-63.207385
727.090508	-63.148491
727.266893	-63.087868
727.443364	-63.026115
727.619920	-62.962485
727.796562	-62.896891
727.973290	-62.827823
728.150103	-62.753196
728.327003	-62.671616
728.503988	-62.582733
728.681060	-62.486997
728.858218	-62.385322
729.035461	-62.280726
729.212791	-62.175598
729.390208	-62.071392
729.567710	-61.969407
