# 2022-03-22_10.07.21
# shape = sech2
# FWHM_ps = 0.11
# carrier_nm = 1542
# frep_MHz = 12126
# pow_mW = 8000
# GDD = 0.0
# propa_len = 0.11866666666666668
# untap_len = 0.01
# taper_len = 0.05866666666666667
# waist_len = 0.02
# uptap_len = 0.02
# untap_scale = 1.0
# waist_scale = 0.33684210526315794
# workingDir = NL_20110305_12 (Spirou)
# axis = slow
# window_ps = 10.0
# steps = 200
# points = 21700
# 
# wavelength [nm]	 power spectral density [dB]
600.043425	-126.304677
600.163550	-126.325812
600.283723	-126.282456
600.403943	-126.178343
600.524212	-126.023086
600.644529	-125.829109
600.764895	-125.610644
600.885308	-125.382304
601.005770	-125.157123
601.126280	-124.945536
601.246839	-124.754935
601.367446	-124.589158
601.488101	-124.448024
601.608804	-124.327207
601.729557	-124.218719
601.850357	-124.112113
601.971206	-123.995968
602.092104	-123.859940
602.213050	-123.697310
602.334045	-123.506987
602.455089	-123.294293
602.576181	-123.070036
602.697322	-122.848428
602.818511	-122.644735
602.939749	-122.472821
603.061036	-122.343582
603.182372	-122.264456
603.303757	-122.238875
603.425191	-122.266066
603.546673	-122.341511
603.668204	-122.457368
603.789785	-122.603046
603.911414	-122.766751
604.033092	-122.937793
604.154820	-123.108630
604.276596	-123.276840
604.398422	-123.446557
604.520297	-123.627566
604.642220	-123.833011
604.764193	-124.076344
604.886216	-124.367092
605.008287	-124.706262
605.130408	-125.082158
605.252578	-125.466349
605.374798	-125.812286
605.497066	-126.061281
605.619385	-126.159469
605.741752	-126.080876
605.864169	-125.841245
605.986636	-125.490753
606.109152	-125.091716
606.231718	-124.699183
606.354333	-124.351722
606.476998	-124.070594
606.599712	-123.863619
606.722476	-123.728847
606.845290	-123.657137
606.968154	-123.634874
607.091067	-123.646807
607.214030	-123.678187
607.337043	-123.716760
607.460106	-123.755041
607.583219	-123.790839
607.706381	-123.826119
607.829594	-123.865084
607.952856	-123.912040
608.076169	-123.969561
608.199531	-124.036766
608.322944	-124.108678
608.446407	-124.176689
608.569920	-124.229465
608.693483	-124.254703
608.817096	-124.241005
608.940759	-124.179362
609.064473	-124.064812
609.188237	-123.897705
609.312051	-123.683610
609.435916	-123.432261
609.559831	-123.156112
609.683796	-122.868920
609.807812	-122.583893
609.931878	-122.312245
610.055995	-122.062631
610.180162	-121.840478
610.304380	-121.648162
610.428648	-121.485273
610.552967	-121.348941
610.677337	-121.235134
610.801757	-121.140187
610.926228	-121.061814
611.050750	-120.999786
611.175323	-120.956624
611.299946	-120.937669
611.424620	-120.950463
611.549345	-121.003622
611.674121	-121.105802
611.798948	-121.265004
611.923826	-121.487819
612.048755	-121.778865
612.173734	-122.140751
612.298765	-122.573937
612.423847	-123.076823
612.548980	-123.645889
612.674165	-124.275480
612.799400	-124.957357
612.924687	-125.679837
613.050025	-126.425487
613.175414	-127.167264
613.300854	-127.862721
613.426346	-128.447246
613.551889	-128.834755
613.677484	-128.937842
613.803130	-128.707744
613.928827	-128.166049
614.054576	-127.395178
614.180377	-126.496934
614.306229	-125.557355
614.432132	-124.635086
614.558087	-123.765031
614.684094	-122.965193
614.810153	-122.242727
614.936263	-121.598609
615.062425	-121.030312
615.188639	-120.533258
615.314904	-120.102273
615.441222	-119.732482
615.567591	-119.419302
615.694012	-119.158907
615.820486	-118.948823
615.947011	-118.787732
616.073588	-118.674980
616.200217	-118.610392
616.326898	-118.594033
616.453632	-118.626062
616.580417	-118.706939
616.707255	-118.837326
616.834144	-119.017553
616.961086	-119.247649
617.088081	-119.527409
617.215127	-119.855513
617.342226	-120.227678
617.469378	-120.633617
617.596581	-121.052749
617.723837	-121.448976
617.851146	-121.767023
617.978507	-121.936915
618.105920	-121.893039
618.233386	-121.604270
618.360905	-121.093556
618.488476	-120.427379
618.616100	-119.685965
618.743777	-118.939066
618.871506	-118.236814
618.999288	-117.611370
619.127123	-117.082082
619.255011	-116.660315
619.382951	-116.353103
619.510945	-116.165665
619.638991	-116.102902
619.767090	-116.170525
619.895243	-116.376019
620.023448	-116.729401
620.151706	-117.244426
620.280017	-117.940033
620.408382	-118.842555
620.536799	-119.989779
620.665270	-121.438194
620.793794	-123.275905
620.922371	-125.645617
621.051002	-128.769570
621.179686	-132.738507
621.308423	-135.098270
621.437213	-132.330407
621.566057	-129.005089
621.694954	-126.549805
621.823905	-124.763490
621.952909	-123.433784
622.081967	-122.424766
622.211079	-121.649038
622.340244	-121.047635
622.469462	-120.578374
622.598735	-120.210297
622.728061	-119.920859
622.857441	-119.694510
622.986874	-119.522919
623.116361	-119.404781
623.245903	-119.344989
623.375498	-119.354115
623.505147	-119.446938
623.634850	-119.640320
623.764606	-119.951147
623.894417	-120.393436
624.024282	-120.974228
624.154201	-121.685771
624.284174	-122.490084
624.414202	-123.294704
624.544283	-123.932500
624.674419	-124.194918
624.804609	-123.959876
624.934853	-123.298637
625.065151	-122.404506
625.195504	-121.453054
625.325911	-120.547944
625.456373	-119.734949
625.586889	-119.028419
625.717460	-118.429043
625.848085	-117.933146
625.978764	-117.536576
626.109498	-117.235876
626.240287	-117.028130
626.371131	-116.909725
626.502029	-116.875270
626.632982	-116.916211
626.763989	-117.019575
626.895052	-117.167746
627.026169	-117.338871
627.157341	-117.508831
627.288568	-117.655237
627.419850	-117.761943
627.551187	-117.822209
627.682579	-117.839817
627.814026	-117.826944
627.945528	-117.800850
628.077085	-117.780565
628.208697	-117.784285
628.340364	-117.828971
628.472087	-117.930885
628.603865	-118.106591
628.735698	-118.374431
628.867586	-118.755833
628.999530	-119.277064
629.131529	-119.971662
629.263584	-120.884698
629.395694	-122.081131
629.527859	-123.660779
629.660080	-125.787256
629.792357	-128.731165
629.924689	-132.675566
630.057077	-134.641176
630.189520	-130.903660
630.322019	-127.076900
630.454574	-124.261237
630.587184	-122.158100
630.719851	-120.543245
630.852573	-119.285397
630.985351	-118.305611
631.118185	-117.553618
631.251075	-116.995489
631.384021	-116.607217
631.517023	-116.371108
631.650081	-116.273512
631.783195	-116.303657
631.916365	-116.452835
632.049592	-116.714313
632.182874	-117.083660
632.316213	-117.559076
632.449608	-118.141273
632.583059	-118.832145
632.716567	-119.632097
632.850131	-120.534217
632.983751	-121.511186
633.117428	-122.491006
633.251161	-123.327948
633.384951	-123.808579
633.518797	-123.761346
633.652700	-123.209675
633.786660	-122.354113
633.920676	-121.412315
634.054749	-120.527875
634.188879	-119.774802
634.323065	-119.187189
634.457308	-118.781325
634.591608	-118.567816
634.725965	-118.557578
634.860379	-118.765382
634.994850	-119.212800
635.129377	-119.931436
635.263962	-120.966442
635.398604	-122.378691
635.533303	-124.227803
635.668058	-126.439934
635.802872	-128.219987
635.937742	-127.733988
636.072669	-125.305578
636.207654	-122.687244
636.342696	-120.432574
636.477796	-118.551426
636.612953	-116.971914
636.748167	-115.631520
636.883439	-114.486478
637.018768	-113.507777
637.154155	-112.676256
637.289599	-111.978544
637.425101	-111.404528
637.560660	-110.945704
637.696277	-110.593879
637.831952	-110.340617
637.967685	-110.177090
638.103475	-110.094417
638.239324	-110.084170
638.375230	-110.138903
638.511194	-110.252726
638.647215	-110.421663
638.783295	-110.643590
638.919433	-110.917747
639.055629	-111.243676
639.191883	-111.620057
639.328195	-112.043475
639.464565	-112.507524
639.600994	-113.002123
639.737481	-113.513496
639.874025	-114.024787
640.010629	-114.517319
640.147290	-114.972159
640.284010	-115.371268
640.420789	-115.698164
640.557625	-115.937451
640.694521	-116.074535
640.831474	-116.097783
640.968487	-116.003222
641.105558	-115.799239
641.242687	-115.508788
641.379876	-115.167369
641.517123	-114.817849
641.654429	-114.504608
641.791793	-114.268837
641.929216	-114.146159
642.066699	-114.166688
642.204240	-114.355597
642.341840	-114.733875
642.479499	-115.318918
642.617217	-116.122825
642.754994	-117.146210
642.892830	-118.363426
643.030726	-119.692285
643.168680	-120.951077
643.306694	-121.859462
643.444767	-122.199777
643.582899	-122.037214
643.721091	-121.651339
643.859342	-121.302993
643.997652	-121.152361
644.136022	-121.295544
644.274451	-121.817241
644.412940	-122.834803
644.551488	-124.542041
644.690096	-127.224281
644.828763	-130.455698
644.967490	-129.258563
645.106277	-124.679236
645.245124	-120.936603
645.384030	-118.137488
645.522997	-116.006927
645.662023	-114.367878
645.801109	-113.114457
645.940255	-112.180411
646.079460	-111.522193
646.218726	-111.110561
646.358052	-110.926828
646.497438	-110.961489
646.636884	-111.214761
646.776391	-111.698690
646.915957	-112.440958
647.055584	-113.492925
647.195271	-114.946490
647.335019	-116.973244
647.474826	-119.936468
647.614695	-124.838990
647.754623	-136.874971
647.894612	-129.259610
648.034662	-122.240032
648.174772	-118.595045
648.314943	-116.262240
648.455174	-114.655136
648.595466	-113.518311
648.735819	-112.710345
648.876233	-112.138125
649.016707	-111.731909
649.157242	-111.436033
649.297838	-111.206889
649.438495	-111.014087
649.579213	-110.841992
649.719992	-110.689765
649.860832	-110.569230
650.001733	-110.500931
650.142695	-110.510430
650.283718	-110.625610
650.424803	-110.874677
650.565949	-111.284154
650.707156	-111.875316
650.848424	-112.654126
650.989754	-113.585336
651.131145	-114.537366
651.272597	-115.214291
651.414111	-115.232654
651.555687	-114.482784
651.697324	-113.270301
651.839022	-111.965778
651.980782	-110.779783
652.122604	-109.793145
652.264488	-109.026694
652.406433	-108.480354
652.548441	-108.149952
652.690510	-108.033258
652.832640	-108.131252
652.974833	-108.446364
653.117088	-108.976492
653.259405	-109.700199
653.401784	-110.544263
653.544224	-111.330521
653.686727	-111.754347
653.829293	-111.545464
653.971920	-110.747175
654.114609	-109.667839
654.257361	-108.593135
654.400175	-107.676424
654.543052	-106.977519
654.685991	-106.511568
654.828992	-106.276113
654.972056	-106.262489
655.115183	-106.458940
655.258372	-106.849641
655.401623	-107.410182
655.544937	-108.098118
655.688314	-108.837975
655.831754	-109.508494
655.975256	-109.956811
656.118822	-110.066487
656.262450	-109.841915
656.406141	-109.407681
656.549894	-108.923086
656.693711	-108.513940
656.837591	-108.259118
656.981534	-108.203549
657.125540	-108.373026
657.269610	-108.784369
657.413742	-109.450729
657.557938	-110.382451
657.702196	-111.581883
657.846519	-113.024788
657.990904	-114.606569
658.135353	-116.032330
658.279866	-116.772787
658.424441	-116.477196
658.569081	-115.440122
658.713784	-114.176063
658.858550	-112.977153
659.003381	-111.942361
659.148274	-111.089929
659.293232	-110.413768
659.438253	-109.903335
659.583339	-109.549859
659.728488	-109.348315
659.873701	-109.298193
660.018978	-109.404418
660.164318	-109.677810
660.309723	-110.135163
660.455192	-110.798830
660.600725	-111.694084
660.746323	-112.840917
660.891984	-114.228273
661.037710	-115.740275
661.183500	-117.005791
661.329354	-117.388983
661.475272	-116.639423
661.621255	-115.268387
661.767303	-113.823740
661.913415	-112.542134
662.059591	-111.482439
662.205833	-110.646598
662.352138	-110.027791
662.498509	-109.624654
662.644944	-109.443101
662.791443	-109.493309
662.938008	-109.783045
663.084638	-110.303804
663.231332	-111.001014
663.378091	-111.718571
663.524915	-112.150630
663.671804	-111.960025
663.818759	-111.106156
663.965778	-109.889455
664.112863	-108.628245
664.260012	-107.493687
664.407227	-106.545395
664.554507	-105.791056
664.701853	-105.220878
664.849264	-104.823182
664.996740	-104.591184
665.144282	-104.525361
665.291889	-104.633247
665.439561	-104.927516
665.587300	-105.421497
665.735103	-106.120525
665.882973	-107.004114
666.030908	-107.989908
666.178909	-108.880473
666.326976	-109.363361
666.475109	-109.210122
666.623307	-108.523460
666.771571	-107.617741
666.919902	-106.748380
667.068298	-106.040591
667.216761	-105.535228
667.365289	-105.233553
667.513884	-105.119943
667.662545	-105.171220
667.811272	-105.359270
667.960065	-105.649249
668.108925	-105.994183
668.257851	-106.329915
668.406843	-106.576070
668.555902	-106.652191
668.705027	-106.511719
668.854219	-106.170166
669.003478	-105.698480
669.152803	-105.188815
669.302195	-104.723004
669.451653	-104.359807
669.601179	-104.136396
669.750771	-104.074671
669.900430	-104.187401
670.050156	-104.482678
670.199949	-104.967165
670.349808	-105.649156
670.499735	-106.541169
670.649729	-107.662353
670.799790	-109.040939
670.949918	-110.714157
671.100114	-112.716688
671.250377	-115.021924
671.400707	-117.319398
671.551104	-118.637013
671.701569	-118.173134
671.852101	-116.759071
672.002700	-115.360512
672.153368	-114.280053
672.304102	-113.536301
672.454905	-113.079783
672.605775	-112.847065
672.756713	-112.767417
672.907718	-112.759541
673.058791	-112.730847
673.209933	-112.588263
673.361142	-112.262951
673.512419	-111.736222
673.663764	-111.044090
673.815177	-110.254604
673.966658	-109.438743
674.118207	-108.653642
674.269825	-107.939201
674.421510	-107.320961
674.573264	-106.814374
674.725086	-106.427964
674.876977	-106.165365
675.028936	-106.026381
675.180963	-106.006725
675.333059	-106.097000
675.485224	-106.281738
675.637457	-106.539351
675.789758	-106.843503
675.942129	-107.167485
676.094568	-107.492091
676.247075	-107.814298
676.399652	-108.152182
676.552298	-108.543720
676.705012	-109.040634
676.857795	-109.702021
677.010648	-110.591387
677.163569	-111.777131
677.316560	-113.330258
677.469619	-115.293913
677.622748	-117.510351
677.775946	-119.043155
677.929214	-118.408448
678.082551	-116.279595
678.235957	-114.073953
678.389432	-112.213566
678.542977	-110.703327
678.696592	-109.477661
678.850276	-108.475024
679.004030	-107.648034
679.157853	-106.962724
679.311746	-106.395719
679.465709	-105.932147
679.619742	-105.564021
679.773844	-105.288738
679.928017	-105.107954
680.082259	-105.026910
680.236571	-105.054056
680.390954	-105.201040
680.545406	-105.484000
680.699929	-105.925786
680.854522	-106.558497
681.009185	-107.427558
681.163918	-108.596947
681.318722	-110.152201
681.473596	-112.179971
681.628540	-114.593047
681.783555	-116.348071
681.938641	-115.475187
682.093797	-112.994160
682.249023	-110.667338
682.404321	-108.880775
682.559689	-107.602898
682.715128	-106.761722
682.870637	-106.303681
683.026218	-106.197258
683.181869	-106.430509
683.337591	-107.010800
683.493385	-107.968185
683.649249	-109.360256
683.805185	-111.267768
683.961191	-113.697929
684.117269	-115.967139
684.273418	-115.805408
684.429639	-113.285774
684.585930	-110.657287
684.742294	-108.559871
684.898728	-106.971867
685.055234	-105.796279
685.211812	-104.950188
685.368461	-104.366609
685.525182	-103.986987
685.681975	-103.756189
685.838839	-103.622233
685.995775	-103.540929
686.152783	-103.482680
686.309863	-103.437153
686.467014	-103.411563
686.624238	-103.422725
686.781534	-103.486667
686.938902	-103.609306
687.096342	-103.780801
687.253854	-103.975792
687.411438	-104.160172
687.569095	-104.304497
687.726824	-104.399140
687.884626	-104.462329
688.042499	-104.535710
688.200446	-104.671753
688.358465	-104.921361
688.516556	-105.326576
688.674720	-105.917079
688.832957	-106.706834
688.991266	-107.688413
689.149649	-108.822240
689.308104	-110.023767
689.466632	-111.165428
689.625233	-112.120559
689.783906	-112.835331
689.942653	-113.341319
690.101473	-113.661943
690.260367	-113.714160
690.419333	-113.354411
690.578372	-112.573480
690.737485	-111.574159
690.896672	-110.615989
691.055931	-109.875758
691.215264	-109.424958
691.374671	-109.241819
691.534151	-109.201504
691.693704	-109.061528
691.853332	-108.544512
692.013033	-107.563721
692.172807	-106.307737
692.332656	-105.041580
692.492578	-103.940119
692.652575	-103.076279
692.812645	-102.459111
692.972789	-102.060697
693.133007	-101.827352
693.293300	-101.684590
693.453666	-101.547565
693.614107	-101.343397
693.774622	-101.038115
693.935211	-100.646727
694.095875	-100.216682
694.256613	-99.800419
694.417426	-99.435810
694.578313	-99.140117
694.739274	-98.913104
694.900311	-98.743940
695.061421	-98.618608
695.222607	-98.525657
695.383868	-98.459273
695.545203	-98.419020
695.706613	-98.407125
695.868098	-98.425991
696.029658	-98.476906
696.191293	-98.560582
696.353003	-98.679864
696.514789	-98.842507
696.676649	-99.062597
696.838585	-99.359331
697.000596	-99.752721
697.162682	-100.256884
697.324844	-100.870813
697.487081	-101.565971
697.649394	-102.273584
697.811782	-102.881270
697.974246	-103.260456
698.136786	-103.331943
698.299401	-103.114131
698.462092	-102.693792
698.624859	-102.157233
698.787702	-101.553838
698.950621	-100.903403
699.113616	-100.218469
699.276686	-99.520202
699.439833	-98.840925
699.603056	-98.215764
699.766355	-97.673028
699.929731	-97.227910
700.093183	-96.880017
700.256711	-96.614546
700.420315	-96.405947
700.583996	-96.223973
700.747754	-96.041662
700.911588	-95.842659
701.075499	-95.624239
701.239486	-95.394434
701.403550	-95.165036
701.567691	-94.944721
701.731909	-94.735552
701.896203	-94.533834
702.060575	-94.334760
702.225024	-94.138176
702.389549	-93.952514
702.554152	-93.795541
702.718832	-93.691479
702.883589	-93.666449
703.048424	-93.744259
703.213335	-93.943297
703.378324	-94.275145
703.543391	-94.743580
703.708535	-95.343009
703.873757	-96.056691
704.039056	-96.855055
704.204433	-97.694609
704.369887	-98.520508
704.535420	-99.275931
704.701030	-99.917688
704.866718	-100.429381
705.032484	-100.822149
705.198328	-101.122174
705.364250	-101.353464
705.530250	-101.526078
705.696328	-101.633555
705.862485	-101.659009
706.028720	-101.587738
706.195033	-101.420672
706.361424	-101.180602
706.527894	-100.906786
706.694442	-100.642070
706.861069	-100.419600
707.027775	-100.251200
707.194559	-100.119111
707.361422	-99.972418
707.528363	-99.734985
707.695384	-99.334528
707.862483	-98.743183
708.029661	-97.997922
708.196918	-97.180343
708.364254	-96.377105
708.531670	-95.653319
708.699164	-95.045884
708.866738	-94.567284
709.034391	-94.210647
709.202123	-93.953746
709.369935	-93.762918
709.537826	-93.599079
709.705796	-93.426810
709.873847	-93.224393
710.041976	-92.990195
710.210186	-92.741051
710.378475	-92.503520
710.546844	-92.303535
710.715292	-92.158613
710.883821	-92.074104
711.052429	-92.043823
711.221118	-92.053382
711.389887	-92.085125
711.558735	-92.123864
711.727664	-92.161699
711.896673	-92.199391
712.065763	-92.243284
712.234932	-92.299625
712.404183	-92.368895
712.573513	-92.442589
712.742924	-92.503960
712.912416	-92.532563
713.081988	-92.511514
713.251641	-92.434601
713.421375	-92.309102
713.591190	-92.153232
713.761085	-91.990736
713.931061	-91.846037
714.101119	-91.741251
714.271257	-91.694999
714.441476	-91.721447
714.611777	-91.827846
714.782159	-92.010135
714.952622	-92.246449
715.123166	-92.489995
715.293792	-92.668704
715.464499	-92.702434
715.635288	-92.540230
715.806158	-92.193996
715.977110	-91.734592
716.148143	-91.254807
716.319259	-90.834163
716.490456	-90.524520
716.661735	-90.351576
716.833096	-90.321737
717.004538	-90.428461
717.176063	-90.657465
717.347670	-90.991662
717.519359	-91.415165
717.691130	-91.914280
717.862984	-92.472927
718.034920	-93.059809
718.206938	-93.607557
718.379039	-93.997366
718.551222	-94.084688
718.723488	-93.788578
718.895836	-93.168465
719.068267	-92.384536
719.240781	-91.597060
719.413377	-90.912850
719.586057	-90.385726
719.758819	-90.033714
719.931664	-89.853132
720.104593	-89.826427
720.277604	-89.926431
720.450699	-90.118752
720.623876	-90.364299
720.797137	-90.623464
720.970482	-90.860652
721.143910	-91.047450
721.317421	-91.163336
721.491016	-91.194043
721.664694	-91.130048
721.838456	-90.968057
722.012302	-90.714764
722.186231	-90.388761
722.360244	-90.018117
722.534342	-89.634772
722.708523	-89.268419
722.882788	-88.942270
723.057137	-88.671866
723.231570	-88.466786
723.406088	-88.333361
723.580689	-88.277148
723.755375	-88.304572
723.930146	-88.422824
