# 2022-03-21_23.29.38
# shape = sech2
# FWHM_ps = 0.1
# carrier_nm = 1542
# frep_MHz = 12126
# pow_mW = 8000
# GDD = 0.0
# propa_len = 0.12555555555555556
# untap_len = 0.01
# taper_len = 0.06555555555555556
# waist_len = 0.02
# uptap_len = 0.02
# untap_scale = 1.0
# waist_scale = 0.3052631578947369
# workingDir = NL_20110305_12 (Spirou)
# axis = slow
# window_ps = 10.0
# steps = 200
# points = 21700
# 
# wavelength [nm]	 power spectral density [dB]
600.043425	-104.210872
600.163550	-103.838390
600.283723	-103.534574
600.403943	-103.294342
600.524212	-103.116220
600.644529	-103.000558
600.764895	-102.949471
600.885308	-102.966686
601.005770	-103.057113
601.126280	-103.226634
601.246839	-103.481538
601.367446	-103.827956
601.488101	-104.270664
601.608804	-104.811186
601.729557	-105.444436
601.850357	-106.152795
601.971206	-106.896995
602.092104	-107.605632
602.213050	-108.172017
602.334045	-108.477742
602.455089	-108.450376
602.576181	-108.112297
602.697322	-107.564118
602.818511	-106.923488
602.939749	-106.281137
603.061036	-105.691324
603.182372	-105.180532
603.303757	-104.757551
603.425191	-104.421330
603.546673	-104.165586
603.668204	-103.981352
603.789785	-103.858578
603.911414	-103.786920
604.033092	-103.756036
604.154820	-103.756011
604.276596	-103.777377
604.398422	-103.810810
604.520297	-103.847294
604.642220	-103.878437
604.764193	-103.896966
604.886216	-103.897916
605.008287	-103.879484
605.130408	-103.844009
605.252578	-103.798222
605.374798	-103.752806
605.497066	-103.721248
605.619385	-103.718246
605.741752	-103.758658
605.864169	-103.856494
605.986636	-104.024084
606.109152	-104.271808
606.231718	-104.607761
606.354333	-105.037501
606.476998	-105.563572
606.599712	-106.184633
606.722476	-106.894506
606.845290	-107.680318
606.968154	-108.520661
607.091067	-109.383586
607.214030	-110.227747
607.337043	-111.007335
607.460106	-111.684138
607.583219	-112.241391
607.706381	-112.692467
607.829594	-113.077362
607.952856	-113.452271
608.076169	-113.878272
608.199531	-114.416805
608.322944	-115.132470
608.446407	-116.102248
608.569920	-117.434520
608.693483	-119.310572
608.817096	-122.088277
608.940759	-126.620446
609.064473	-133.470903
609.188237	-127.837615
609.312051	-122.075644
609.435916	-118.464604
609.559831	-115.932620
609.683796	-114.049036
609.807812	-112.610545
609.931878	-111.505529
610.055995	-110.663277
610.180162	-110.031967
610.304380	-109.566506
610.428648	-109.220912
610.552967	-108.942955
610.677337	-108.672748
610.801757	-108.347629
610.926228	-107.914607
611.050750	-107.346584
611.175323	-106.650645
611.299946	-105.861967
611.424620	-105.027128
611.549345	-104.189842
611.674121	-103.383571
611.798948	-102.630133
611.923826	-101.942130
612.048755	-101.325402
612.173734	-100.781764
612.298765	-100.310731
612.423847	-99.910723
612.548980	-99.579862
612.674165	-99.316571
612.799400	-99.119827
612.924687	-98.989319
613.050025	-98.925366
613.175414	-98.928791
613.300854	-99.000758
613.426346	-99.142523
613.551889	-99.355129
613.677484	-99.638970
613.803130	-99.993409
613.928827	-100.416002
614.054576	-100.901840
614.180377	-101.442304
614.306229	-102.023810
614.432132	-102.626194
614.558087	-103.221945
614.684094	-103.776767
614.810153	-104.252913
614.936263	-104.616109
615.062425	-104.844254
615.188639	-104.934111
615.314904	-104.901276
615.441222	-104.774091
615.567591	-104.585508
615.694012	-104.366277
615.820486	-104.141895
615.947011	-103.931819
616.073588	-103.750698
616.200217	-103.609210
616.326898	-103.515403
616.453632	-103.475274
616.580417	-103.493252
616.707255	-103.572319
616.834144	-103.714046
616.961086	-103.918169
617.088081	-104.182233
617.215127	-104.501235
617.342226	-104.866964
617.469378	-105.267369
617.596581	-105.686875
617.723837	-106.106743
617.851146	-106.507463
617.978507	-106.872164
618.105920	-107.190733
618.233386	-107.462562
618.360905	-107.697200
618.488476	-107.912703
618.616100	-108.131047
618.743777	-108.374538
618.871506	-108.662314
618.999288	-109.007609
619.127123	-109.415359
619.255011	-109.879553
619.382951	-110.379418
619.510945	-110.876580
619.638991	-111.312300
619.767090	-111.614317
619.895243	-111.715631
620.023448	-111.582074
620.151706	-111.227795
620.280017	-110.705294
620.408382	-110.079087
620.536799	-109.404205
620.665270	-108.718736
620.793794	-108.045036
620.922371	-107.394712
621.051002	-106.773308
621.179686	-106.183694
621.308423	-105.627578
621.437213	-105.106995
621.566057	-104.624065
621.694954	-104.181112
621.823905	-103.780363
621.952909	-103.423717
622.081967	-103.112338
622.211079	-102.846642
622.340244	-102.626438
622.469462	-102.450964
622.598735	-102.319281
622.728061	-102.230568
622.857441	-102.184320
622.986874	-102.180677
623.116361	-102.220488
623.245903	-102.305259
623.375498	-102.437074
623.505147	-102.618168
623.634850	-102.850602
623.764606	-103.135643
623.894417	-103.472854
624.024282	-103.859493
624.154201	-104.289989
624.284174	-104.755667
624.414202	-105.244698
624.544283	-105.743548
624.674419	-106.239344
624.804609	-106.723059
624.934853	-107.192894
625.065151	-107.657340
625.195504	-108.135564
625.325911	-108.655527
625.456373	-109.250195
625.586889	-109.953781
625.717460	-110.797477
625.848085	-111.798869
625.978764	-112.939970
626.109498	-114.112003
626.240287	-115.028728
626.371131	-115.254389
626.502029	-114.587156
626.632982	-113.320568
626.763989	-111.870903
626.895052	-110.474784
627.026169	-109.211407
627.157341	-108.087096
627.288568	-107.081492
627.419850	-106.167335
627.551187	-105.318744
627.682579	-104.515244
627.814026	-103.743341
627.945528	-102.997061
628.077085	-102.276713
628.208697	-101.586789
628.340364	-100.933903
628.472087	-100.324771
628.603865	-99.764968
628.735698	-99.258447
628.867586	-98.807147
628.999530	-98.410878
629.131529	-98.067789
629.263584	-97.774565
629.395694	-97.526979
629.527859	-97.320379
629.660080	-97.150341
629.792357	-97.013041
629.924689	-96.905772
630.057077	-96.827358
630.189520	-96.778224
630.322019	-96.760382
630.454574	-96.777017
630.587184	-96.832104
630.719851	-96.929883
630.852573	-97.074122
630.985351	-97.267412
631.118185	-97.510456
631.251075	-97.801190
631.384021	-98.133712
631.517023	-98.497497
631.650081	-98.876964
631.783195	-99.252175
631.916365	-99.601019
632.049592	-99.903522
632.182874	-100.147524
632.316213	-100.333559
632.449608	-100.476360
632.583059	-100.602549
632.716567	-100.745509
632.850131	-100.940195
632.983751	-101.219351
633.117428	-101.611159
633.251161	-102.136937
633.384951	-102.806298
633.518797	-103.605151
633.652700	-104.469855
633.786660	-105.246252
633.920676	-105.674293
634.054749	-105.509578
634.188879	-104.750553
634.323065	-103.639621
634.457308	-102.435925
634.591608	-101.292858
634.725965	-100.272861
634.860379	-99.388330
634.994850	-98.628049
635.129377	-97.969612
635.263962	-97.384889
635.398604	-96.843230
635.533303	-96.314601
635.668058	-95.773487
635.802872	-95.202570
635.937742	-94.595250
636.072669	-93.955569
636.207654	-93.295833
636.342696	-92.632704
636.477796	-91.983572
636.612953	-91.364040
636.748167	-90.786588
636.883439	-90.260337
637.018768	-89.791451
637.154155	-89.383705
637.289599	-89.039080
637.425101	-88.758272
637.560660	-88.540974
637.696277	-88.386155
637.831952	-88.292253
637.967685	-88.257172
638.103475	-88.278212
638.239324	-88.352034
638.375230	-88.474629
638.511194	-88.641169
638.647215	-88.845981
638.783295	-89.082505
638.919433	-89.343384
639.055629	-89.620820
639.191883	-89.907011
639.328195	-90.194766
639.464565	-90.478153
639.600994	-90.753022
639.737481	-91.017308
639.874025	-91.271141
640.010629	-91.516558
640.147290	-91.756865
640.284010	-91.995993
640.420789	-92.237879
640.557625	-92.486012
640.694521	-92.743151
640.831474	-93.011328
640.968487	-93.291747
641.105558	-93.584989
641.242687	-93.891301
641.379876	-94.210648
641.517123	-94.543136
641.654429	-94.889039
641.791793	-95.248864
641.929216	-95.623529
642.066699	-96.014260
642.204240	-96.422408
642.341840	-96.849575
642.479499	-97.297539
642.617217	-97.768059
642.754994	-98.262296
642.892830	-98.779875
643.030726	-99.316679
643.168680	-99.861644
643.306694	-100.391928
643.444767	-100.866555
643.582899	-101.222127
643.721091	-101.378326
643.859342	-101.262883
643.997652	-100.848822
644.136022	-100.174076
644.274451	-99.321842
644.412940	-98.382951
644.551488	-97.430642
644.690096	-96.514480
644.828763	-95.664151
644.967490	-94.895821
645.106277	-94.217319
645.245124	-93.631432
645.384030	-93.138058
645.522997	-92.735458
645.662023	-92.420641
645.801109	-92.189735
645.940255	-92.037571
646.079460	-91.957113
646.218726	-91.938672
646.358052	-91.968531
646.497438	-92.027435
646.636884	-92.089446
646.776391	-92.121989
646.915957	-92.088750
647.055584	-91.955949
647.195271	-91.701326
647.335019	-91.321285
647.474826	-90.832087
647.614695	-90.264163
647.754623	-89.653032
647.894612	-89.031775
648.034662	-88.427025
648.174772	-87.858091
648.314943	-87.337852
648.455174	-86.874244
648.595466	-86.471701
648.735819	-86.132298
648.876233	-85.856678
649.016707	-85.644570
649.157242	-85.495132
649.297838	-85.407178
649.438495	-85.379223
649.579213	-85.409556
649.719992	-85.496170
649.860832	-85.636644
650.001733	-85.828155
650.142695	-86.067354
650.283718	-86.350416
650.424803	-86.673128
650.565949	-87.031081
650.707156	-87.420056
650.848424	-87.836396
650.989754	-88.277388
651.131145	-88.741846
651.272597	-89.230470
651.414111	-89.746124
651.555687	-90.293983
651.697324	-90.881870
651.839022	-91.520393
651.980782	-92.223596
652.122604	-93.009991
652.264488	-93.904231
652.406433	-94.940030
652.548441	-96.165345
652.690510	-97.651900
652.832640	-99.513839
652.974833	-101.946100
653.117088	-105.286378
653.259405	-109.698843
653.401784	-110.596104
653.544224	-106.062769
653.686727	-102.248810
653.829293	-99.450127
653.971920	-97.295038
654.114609	-95.560492
654.257361	-94.118581
654.400175	-92.891618
654.543052	-91.829658
654.685991	-90.899527
654.828992	-90.078594
654.972056	-89.351170
655.115183	-88.706136
655.258372	-88.135300
655.401623	-87.632146
655.544937	-87.190956
655.688314	-86.806210
655.831754	-86.472016
655.975256	-86.181774
656.118822	-85.927980
656.262450	-85.702178
656.406141	-85.494950
656.549894	-85.296026
656.693711	-85.094542
656.837591	-84.879373
656.981534	-84.639791
657.125540	-84.366390
657.269610	-84.052128
657.413742	-83.693317
657.557938	-83.290291
657.702196	-82.847333
657.846519	-82.372030
657.990904	-81.874095
658.135353	-81.364002
658.279866	-80.851759
658.424441	-80.346138
658.569081	-79.854200
658.713784	-79.381280
658.858550	-78.931096
659.003381	-78.506034
659.148274	-78.107452
659.293232	-77.735952
659.438253	-77.391562
659.583339	-77.073910
659.728488	-76.782275
659.873701	-76.515565
660.018978	-76.272354
660.164318	-76.050880
660.309723	-75.849073
660.455192	-75.664663
660.600725	-75.495270
660.746323	-75.338590
660.891984	-75.192508
661.037710	-75.055231
661.183500	-74.925358
661.329354	-74.801834
661.475272	-74.683855
661.621255	-74.570776
661.767303	-74.462014
661.913415	-74.356969
662.059591	-74.255020
662.205833	-74.155591
662.352138	-74.058190
662.498509	-73.962482
662.644944	-73.868357
662.791443	-73.775901
662.938008	-73.685296
663.084638	-73.596742
663.231332	-73.510374
663.378091	-73.426207
663.524915	-73.344076
663.671804	-73.263703
663.818759	-73.184761
663.965778	-73.106973
664.112863	-73.030189
664.260012	-72.954403
664.407227	-72.879744
664.554507	-72.806391
664.701853	-72.734473
664.849264	-72.663987
664.996740	-72.594754
665.144282	-72.526477
665.291889	-72.458787
665.439561	-72.391338
665.587300	-72.323902
665.735103	-72.256433
665.882973	-72.189067
666.030908	-72.122070
666.178909	-72.055766
666.326976	-71.990474
666.475109	-71.926455
666.623307	-71.863935
666.771571	-71.803149
666.919902	-71.744456
667.068298	-71.688469
667.216761	-71.636071
667.365289	-71.588434
667.513884	-71.546945
667.662545	-71.513085
667.811272	-71.488269
667.960065	-71.473738
668.108925	-71.470430
668.257851	-71.478928
668.406843	-71.499449
668.555902	-71.531851
668.705027	-71.575648
668.854219	-71.630008
669.003478	-71.693691
669.152803	-71.764956
669.302195	-71.841484
669.451653	-71.920302
669.601179	-71.997766
669.750771	-72.069656
669.900430	-72.131397
670.050156	-72.178392
670.199949	-72.206462
670.349808	-72.212265
670.499735	-72.193656
670.649729	-72.149887
670.799790	-72.081629
670.949918	-71.990895
671.100114	-71.880867
671.250377	-71.755642
671.400707	-71.619986
671.551104	-71.479102
671.701569	-71.338418
671.852101	-71.203362
672.002700	-71.079126
672.153368	-70.970467
672.304102	-70.881526
672.454905	-70.815709
672.605775	-70.775615
672.756713	-70.763022
672.907718	-70.778880
673.058791	-70.823365
673.209933	-70.895894
673.361142	-70.995148
673.512419	-71.118981
673.663764	-71.264311
673.815177	-71.426959
673.966658	-71.601435
674.118207	-71.780779
674.269825	-71.956566
674.421510	-72.119137
674.573264	-72.258252
674.725086	-72.364066
674.876977	-72.428379
675.028936	-72.445832
675.180963	-72.414787
675.333059	-72.337574
675.485224	-72.220126
675.637457	-72.070992
675.789758	-71.900148
675.942129	-71.717931
676.094568	-71.534264
676.247075	-71.358123
676.399652	-71.197264
676.552298	-71.058094
676.705012	-70.945638
676.857795	-70.863543
677.010648	-70.814126
677.163569	-70.798380
677.316560	-70.816013
677.469619	-70.865469
677.622748	-70.943949
677.775946	-71.047452
677.929214	-71.170808
678.082551	-71.307735
678.235957	-71.450981
678.389432	-71.592530
678.542977	-71.723958
678.696592	-71.836998
678.850276	-71.924302
679.004030	-71.980334
679.157853	-72.002243
679.311746	-71.990375
679.465709	-71.948360
679.619742	-71.882687
679.773844	-71.801890
679.928017	-71.715558
680.082259	-71.633382
680.236571	-71.564453
680.390954	-71.516842
680.545406	-71.497403
680.699929	-71.511803
680.854522	-71.564538
681.009185	-71.658945
681.163918	-71.797200
681.318722	-71.980195
681.473596	-72.207155
681.628540	-72.475135
681.783555	-72.778365
681.938641	-73.107533
682.093797	-73.449023
682.249023	-73.784509
682.404321	-74.091349
682.559689	-74.344421
682.715128	-74.519624
682.870637	-74.598698
683.026218	-74.573710
683.181869	-74.449209
683.337591	-74.240990
683.493385	-73.972118
683.649249	-73.668102
683.805185	-73.353143
683.961191	-73.048017
684.117269	-72.769245
684.273418	-72.529236
684.429639	-72.336892
684.585930	-72.198222
684.742294	-72.116871
684.898728	-72.094569
685.055234	-72.131470
685.211812	-72.226271
685.368461	-72.376192
685.525182	-72.576619
685.681975	-72.820432
685.838839	-73.096952
685.995775	-73.390589
686.152783	-73.679469
686.309863	-73.934872
686.467014	-74.122782
686.624238	-74.208896
686.781534	-74.166833
686.938902	-73.986508
687.096342	-73.677863
687.253854	-73.267353
687.411438	-72.789642
687.569095	-72.279157
687.726824	-71.764800
687.884626	-71.268311
688.042499	-70.804736
688.200446	-70.383833
688.358465	-70.011637
688.516556	-69.691669
688.674720	-69.425827
688.832957	-69.214950
688.991266	-69.059127
689.149649	-68.957828
689.308104	-68.909898
689.466632	-68.913457
689.625233	-68.965782
689.783906	-69.063106
689.942653	-69.200314
690.101473	-69.370662
690.260367	-69.565407
690.419333	-69.773473
690.578372	-69.981278
690.737485	-70.172939
690.896672	-70.331168
691.055931	-70.439044
691.215264	-70.482548
691.374671	-70.453341
691.534151	-70.350696
691.693704	-70.181760
691.853332	-69.959989
692.013033	-69.702431
692.172807	-69.426888
692.332656	-69.149769
692.492578	-68.884936
692.652575	-68.643347
692.812645	-68.433272
692.972789	-68.260687
693.133007	-68.129716
693.293300	-68.043020
693.453666	-68.001976
693.614107	-68.006728
693.774622	-68.056077
693.935211	-68.147298
694.095875	-68.275812
694.256613	-68.434829
694.417426	-68.615011
694.578313	-68.804274
694.739274	-68.987911
694.900311	-69.149268
695.061421	-69.271104
695.222607	-69.337729
695.383868	-69.337534
695.545203	-69.265226
695.706613	-69.122953
695.868098	-68.919844
696.029658	-68.670163
696.191293	-68.390788
696.353003	-68.098845
696.514789	-67.810071
696.676649	-67.537909
696.838585	-67.293245
697.000596	-67.084553
697.162682	-66.918278
697.324844	-66.799272
697.487081	-66.731222
697.649394	-66.717021
697.811782	-66.758999
697.974246	-66.859112
698.136786	-67.019048
698.299401	-67.240181
698.462092	-67.523440
698.624859	-67.869045
698.787702	-68.276126
698.950621	-68.742130
699.113616	-69.261885
699.276686	-69.826284
699.439833	-70.420527
699.603056	-71.021954
699.766355	-71.598238
699.929731	-72.107479
700.093183	-72.502778
700.256711	-72.742802
700.420315	-72.805680
700.583996	-72.698395
700.747754	-72.454432
700.911588	-72.121675
701.075499	-71.748728
701.239486	-71.376382
701.403550	-71.035006
701.567691	-70.745362
701.731909	-70.520789
701.896203	-70.369441
702.060575	-70.296112
702.225024	-70.303569
702.389549	-70.393448
702.554152	-70.566799
702.718832	-70.824309
702.883589	-71.166129
703.048424	-71.591148
703.213335	-72.095451
703.378324	-72.669698
703.543391	-73.294900
703.708535	-73.936530
703.873757	-74.538951
704.039056	-75.025463
704.204433	-75.313044
704.369887	-75.344651
704.535420	-75.120081
704.701030	-74.696271
704.866718	-74.156764
705.032484	-73.579388
705.198328	-73.021498
705.364250	-72.519807
705.530250	-72.096053
705.696328	-71.762747
705.862485	-71.527269
706.028720	-71.394568
706.195033	-71.368658
706.361424	-71.453516
706.527894	-71.653495
706.694442	-71.973380
706.861069	-72.418235
707.027775	-72.992659
707.194559	-73.698794
707.361422	-74.531469
707.528363	-75.467443
707.695384	-76.443995
707.862483	-77.326656
708.029661	-77.895253
708.196918	-77.928111
708.364254	-77.383195
708.531670	-76.441578
708.699164	-75.341834
708.866738	-74.249647
709.034391	-73.248307
709.202123	-72.370802
709.369935	-71.625682
709.537826	-71.011132
709.705796	-70.521544
709.873847	-70.150501
710.041976	-69.892060
710.210186	-69.741391
710.378475	-69.695014
710.546844	-69.750925
710.715292	-69.908655
710.883821	-70.169165
711.052429	-70.534509
711.221118	-71.007213
711.389887	-71.589025
711.558735	-72.278553
711.727664	-73.066685
711.896673	-73.928001
712.065763	-74.806684
712.234932	-75.599464
712.404183	-76.154119
712.573513	-76.319449
712.742924	-76.043212
712.912416	-75.415183
713.081988	-74.595555
713.251641	-73.724368
713.421375	-72.890031
713.591190	-72.138554
713.761085	-71.490502
713.931061	-70.953230
714.101119	-70.527890
714.271257	-70.213048
714.441476	-70.006473
714.611777	-69.906036
714.782159	-69.910147
714.952622	-70.018056
715.123166	-70.229893
715.293792	-70.546432
715.464499	-70.968331
715.635288	-71.494366
715.806158	-72.117833
715.977110	-72.819496
716.148143	-73.555662
716.319259	-74.242347
716.490456	-74.747439
716.661735	-74.920845
716.833096	-74.677462
717.004538	-74.063013
717.176063	-73.217238
717.347670	-72.284519
717.519359	-71.364892
717.691130	-70.513325
717.862984	-69.755217
718.034920	-69.099965
718.206938	-68.549429
718.379039	-68.102375
718.551222	-67.756723
718.723488	-67.510485
718.895836	-67.362058
719.068267	-67.310252
719.240781	-67.354034
719.413377	-67.492271
719.586057	-67.723389
719.758819	-68.044796
719.931664	-68.452106
720.104593	-68.937820
720.277604	-69.488929
720.450699	-70.083281
720.623876	-70.684405
720.797137	-71.236489
720.970482	-71.664777
721.143910	-71.889837
721.317421	-71.858054
721.491016	-71.570748
721.664694	-71.084647
721.838456	-70.482859
722.012302	-69.843402
722.186231	-69.223988
722.360244	-68.661227
722.534342	-68.175763
722.708523	-67.777862
722.882788	-67.471781
723.057137	-67.258604
723.231570	-67.138271
723.406088	-67.110812
723.580689	-67.177085
723.755375	-67.339296
723.930146	-67.601061
724.105000	-67.967310
724.279940	-68.443926
724.454963	-69.037028
724.630072	-69.751541
724.805265	-70.588283
724.980543	-71.537884
725.155905	-72.568804
725.331353	-73.606525
725.506885	-74.509150
725.682503	-75.074463
725.858205	-75.135892
726.033993	-74.698885
726.209865	-73.935225
726.385823	-73.044559
726.561866	-72.164704
726.737995	-71.368567
726.914209	-70.688938
727.090508	-70.138745
727.266893	-69.722383
727.443364	-69.441387
727.619920	-69.297126
