# 2022-03-22_08.27.33
# shape = sech2
# FWHM_ps = 0.11
# carrier_nm = 1542
# frep_MHz = 12126
# pow_mW = 8000
# GDD = 0.0
# propa_len = 0.098
# untap_len = 0.01
# taper_len = 0.038
# waist_len = 0.02
# uptap_len = 0.02
# untap_scale = 1.0
# waist_scale = 0.22631578947368425
# workingDir = NL_20110305_12 (Spirou)
# axis = slow
# window_ps = 10.0
# steps = 200
# points = 21700
# 
# wavelength [nm]	 power spectral density [dB]
600.043425	-77.158687
600.163550	-76.819341
600.283723	-76.499541
600.403943	-76.176224
600.524212	-75.842034
600.644529	-75.507698
600.764895	-75.195893
600.885308	-74.925004
601.005770	-74.714180
601.126280	-74.574970
601.246839	-74.506721
601.367446	-74.506522
601.488101	-74.567759
601.608804	-74.671077
601.729557	-74.800246
601.850357	-74.932017
601.971206	-75.058903
602.092104	-75.173848
602.213050	-75.293727
602.334045	-75.446437
602.455089	-75.661169
602.576181	-75.968927
602.697322	-76.391364
602.818511	-76.937600
602.939749	-77.606857
603.061036	-78.384836
603.182372	-79.260520
603.303757	-80.188200
603.425191	-81.132425
603.546673	-82.071139
603.668204	-83.031137
603.789785	-84.077134
603.911414	-85.323096
604.033092	-86.856674
604.154820	-88.580357
604.276596	-89.682027
604.398422	-88.879677
604.520297	-86.652371
604.642220	-84.345159
604.764193	-82.413499
604.886216	-80.885874
605.008287	-79.681149
605.130408	-78.737627
605.252578	-77.982751
605.374798	-77.347935
605.497066	-76.774328
605.619385	-76.213527
605.741752	-75.643320
605.864169	-75.065788
605.986636	-74.503690
606.109152	-73.989220
606.231718	-73.548654
606.354333	-73.203549
606.476998	-72.962362
606.599712	-72.819069
606.722476	-72.753279
606.845290	-72.742164
606.968154	-72.761052
607.091067	-72.787979
607.214030	-72.804913
607.337043	-72.811453
607.460106	-72.816867
607.583219	-72.843459
607.706381	-72.919307
607.829594	-73.073213
607.952856	-73.324898
608.076169	-73.683253
608.199531	-74.146300
608.322944	-74.697632
608.446407	-75.315392
608.569920	-75.974540
608.693483	-76.656768
608.817096	-77.365162
608.940759	-78.119993
609.064473	-78.968070
609.188237	-79.977544
609.312051	-81.231280
609.435916	-82.820262
609.559831	-84.816189
609.683796	-87.118195
609.807812	-88.839285
609.931878	-88.331590
610.055995	-86.209756
610.180162	-84.016504
610.304380	-82.177987
610.428648	-80.666315
610.552967	-79.391117
610.677337	-78.274332
610.801757	-77.275391
610.926228	-76.369604
611.050750	-75.552641
611.175323	-74.825161
611.299946	-74.189428
611.424620	-73.639064
611.549345	-73.167719
611.674121	-72.771355
611.798948	-72.440216
611.923826	-72.158049
612.048755	-71.912444
612.173734	-71.698780
612.298765	-71.516077
612.423847	-71.373001
612.548980	-71.277179
612.674165	-71.243024
612.799400	-71.273916
612.924687	-71.372818
613.050025	-71.529652
613.175414	-71.731434
613.300854	-71.967917
613.426346	-72.227982
613.551889	-72.509414
613.677484	-72.820450
613.803130	-73.172267
613.928827	-73.592202
614.054576	-74.108174
614.180377	-74.751802
614.306229	-75.550096
614.432132	-76.527915
614.558087	-77.702745
614.684094	-79.060140
614.810153	-80.563052
614.936263	-82.139382
615.062425	-83.663504
615.188639	-84.942459
615.314904	-85.707205
615.441222	-85.653255
615.567591	-84.693299
615.694012	-83.126534
615.820486	-81.354651
615.947011	-79.638832
616.073588	-78.102353
616.200217	-76.768410
616.326898	-75.637456
616.453632	-74.695066
616.580417	-73.919855
616.707255	-73.277581
616.834144	-72.740083
616.961086	-72.280332
617.088081	-71.875394
617.215127	-71.509676
617.342226	-71.184573
617.469378	-70.899634
617.596581	-70.659261
617.723837	-70.470804
617.851146	-70.339495
617.978507	-70.260730
618.105920	-70.237990
618.233386	-70.269029
618.360905	-70.353283
618.488476	-70.486411
618.616100	-70.676087
618.743777	-70.921660
618.871506	-71.226171
618.999288	-71.599827
619.127123	-72.049276
619.255011	-72.578318
619.382951	-73.194009
619.510945	-73.897509
619.638991	-74.690547
619.767090	-75.578346
619.895243	-76.589758
620.023448	-77.762555
620.151706	-79.154119
620.280017	-80.846089
620.408382	-82.868081
620.536799	-85.007362
620.665270	-86.231718
620.793794	-85.267595
620.922371	-83.023773
621.051002	-80.794057
621.179686	-78.912880
621.308423	-77.373621
621.437213	-76.116385
621.566057	-75.072331
621.694954	-74.188482
621.823905	-73.415834
621.952909	-72.729226
622.081967	-72.111837
622.211079	-71.559433
622.340244	-71.071023
622.469462	-70.650480
622.598735	-70.297842
622.728061	-70.014038
622.857441	-69.794445
622.986874	-69.636899
623.116361	-69.541546
623.245903	-69.507475
623.375498	-69.531791
623.505147	-69.614290
623.634850	-69.753302
623.764606	-69.951240
623.894417	-70.210426
624.024282	-70.535828
624.154201	-70.926664
624.284174	-71.388454
624.414202	-71.926302
624.544283	-72.543488
624.674419	-73.253277
624.804609	-74.076033
624.934853	-75.045346
625.065151	-76.200571
625.195504	-77.598147
625.325911	-79.301392
625.456373	-81.350244
625.586889	-83.604733
625.717460	-85.212857
625.848085	-84.769459
625.978764	-82.767168
626.109498	-80.577144
626.240287	-78.690078
626.371131	-77.126241
626.502029	-75.829960
626.632982	-74.735292
626.763989	-73.790084
626.895052	-72.962658
627.026169	-72.233259
627.157341	-71.595586
627.288568	-71.040466
627.419850	-70.564645
627.551187	-70.169300
627.682579	-69.845695
627.814026	-69.591483
627.945528	-69.405685
628.077085	-69.283654
628.208697	-69.225451
628.340364	-69.231272
628.472087	-69.301037
628.603865	-69.437915
628.735698	-69.638390
628.867586	-69.906686
628.999530	-70.244319
629.131529	-70.653668
629.263584	-71.132026
629.395694	-71.684615
629.527859	-72.318400
629.660080	-73.051426
629.792357	-73.912914
629.924689	-74.942695
630.057077	-76.192796
630.189520	-77.715904
630.322019	-79.553058
630.454574	-81.661570
630.587184	-83.599977
630.719851	-84.202363
630.852573	-82.951641
630.985351	-80.949278
631.118185	-79.016937
631.251075	-77.357343
631.384021	-75.953022
631.517023	-74.758926
631.650081	-73.733220
631.783195	-72.851759
631.916365	-72.098701
632.049592	-71.459496
632.182874	-70.923743
632.316213	-70.485381
632.449608	-70.126563
632.583059	-69.837596
632.716567	-69.603609
632.850131	-69.424180
632.983751	-69.297965
633.117428	-69.232472
633.251161	-69.238818
633.384951	-69.326117
633.518797	-69.499673
633.652700	-69.762525
633.786660	-70.108346
633.920676	-70.538718
634.054749	-71.044079
634.188879	-71.626137
634.323065	-72.290316
634.457308	-73.053161
634.591608	-73.940278
634.725965	-74.983449
634.860379	-76.223451
634.994850	-77.702524
635.129377	-79.435080
635.263962	-81.308599
635.398604	-82.904086
635.533303	-83.384001
635.668058	-82.372070
635.802872	-80.608185
635.937742	-78.771490
636.072669	-77.111368
636.207654	-75.667554
636.342696	-74.436091
636.477796	-73.405918
636.612953	-72.553868
636.748167	-71.854597
636.883439	-71.292941
637.018768	-70.845847
637.154155	-70.490422
637.289599	-70.205650
637.425101	-69.985324
637.560660	-69.821801
637.696277	-69.713971
637.831952	-69.666500
637.967685	-69.686334
638.103475	-69.783736
638.239324	-69.958397
638.375230	-70.214390
638.511194	-70.550766
638.647215	-70.971659
638.783295	-71.482112
638.919433	-72.100708
639.055629	-72.844796
639.191883	-73.746668
639.328195	-74.839691
639.464565	-76.160026
639.600994	-77.745973
639.737481	-79.603072
639.874025	-81.646790
640.010629	-83.439506
640.147290	-84.040151
640.284010	-83.021687
640.420789	-81.215580
640.557625	-79.368032
640.694521	-77.712903
640.831474	-76.279999
640.968487	-75.051465
641.105558	-74.016568
641.242687	-73.141465
641.379876	-72.413983
641.517123	-71.809879
641.654429	-71.311614
641.791793	-70.902893
641.929216	-70.580658
642.066699	-70.340796
642.204240	-70.189850
642.341840	-70.133110
642.479499	-70.173656
642.617217	-70.312603
642.754994	-70.543435
642.892830	-70.862053
643.030726	-71.261886
643.168680	-71.738574
643.306694	-72.301784
643.444767	-72.960900
643.582899	-73.743703
643.721091	-74.669168
643.859342	-75.786281
643.997652	-77.127083
644.136022	-78.744391
644.274451	-80.703954
644.412940	-83.021067
644.551488	-85.417744
644.690096	-86.513741
644.828763	-85.020980
644.967490	-82.438784
645.106277	-80.049306
645.245124	-78.076024
645.384030	-76.483938
645.522997	-75.213858
645.662023	-74.194573
645.801109	-73.382781
645.940255	-72.734968
646.079460	-72.220106
646.218726	-71.817159
646.358052	-71.512708
646.497438	-71.308099
646.636884	-71.196686
646.776391	-71.185687
646.915957	-71.270410
647.055584	-71.445650
647.195271	-71.703677
647.335019	-72.038808
647.474826	-72.450885
647.614695	-72.945606
647.754623	-73.550400
647.894612	-74.291310
648.034662	-75.221372
648.174772	-76.386267
648.314943	-77.853947
648.455174	-79.729979
648.595466	-82.148042
648.735819	-85.368267
648.876233	-89.532632
649.016707	-91.611180
649.157242	-87.922543
649.297838	-84.134180
649.438495	-81.322674
649.579213	-79.202481
649.719992	-77.575500
649.860832	-76.321631
650.001733	-75.357733
650.142695	-74.625301
650.283718	-74.063453
650.424803	-73.632077
650.565949	-73.286710
650.707156	-73.016527
650.848424	-72.816492
650.989754	-72.706845
651.131145	-72.700873
651.272597	-72.817229
651.414111	-73.066125
651.555687	-73.446330
651.697324	-73.948324
651.839022	-74.574866
651.980782	-75.329500
652.122604	-76.248650
652.264488	-77.382451
652.406433	-78.834910
652.548441	-80.761827
652.690510	-83.439912
652.832640	-87.485557
652.974833	-95.062884
653.117088	-99.841097
653.259405	-89.965914
653.401784	-85.522094
653.544224	-82.746936
653.686727	-80.756402
653.829293	-79.202171
653.971920	-77.947655
654.114609	-76.936779
654.257361	-76.143312
654.400175	-75.545725
654.543052	-75.127285
654.685991	-74.853625
654.828992	-74.696166
654.972056	-74.628835
655.115183	-74.639419
655.258372	-74.734843
655.401623	-74.941946
655.544937	-75.295761
655.688314	-75.830641
655.831754	-76.578742
655.975256	-77.571170
656.118822	-78.840620
656.262450	-80.442681
656.406141	-82.485539
656.549894	-85.248795
656.693711	-89.439806
656.837591	-97.563391
656.981534	-96.928609
657.125540	-88.935307
657.269610	-84.750892
657.413742	-82.077823
657.557938	-80.214512
657.702196	-78.865837
657.846519	-77.863019
657.990904	-77.083660
658.135353	-76.451446
658.279866	-75.941828
658.424441	-75.534391
658.569081	-75.256545
658.713784	-75.115339
658.858550	-75.129418
659.003381	-75.298178
659.148274	-75.608098
659.293232	-76.038695
659.438253	-76.588150
659.583339	-77.270106
659.728488	-78.132462
659.873701	-79.262955
660.018978	-80.751274
660.164318	-82.667597
660.309723	-84.839654
660.455192	-86.325877
660.600725	-85.686226
660.746323	-83.660390
660.891984	-81.570622
661.037710	-79.797047
661.183500	-78.322241
661.329354	-77.090776
661.475272	-76.067484
661.621255	-75.227745
661.767303	-74.575022
661.913415	-74.092253
662.059591	-73.767932
662.205833	-73.576560
662.352138	-73.501356
662.498509	-73.520264
662.644944	-73.622568
662.791443	-73.813653
662.938008	-74.101621
663.084638	-74.493200
663.231332	-74.996262
663.378091	-75.596587
663.524915	-76.259509
663.671804	-76.913372
663.818759	-77.497679
663.965778	-77.913529
664.112863	-78.065896
664.260012	-77.866469
664.407227	-77.291934
664.554507	-76.441187
664.701853	-75.470306
664.849264	-74.514437
664.996740	-73.649509
665.144282	-72.899311
665.291889	-72.264251
665.439561	-71.732177
665.587300	-71.297698
665.735103	-70.962951
665.882973	-70.736663
666.030908	-70.624646
666.178909	-70.629067
666.326976	-70.744097
666.475109	-70.955946
666.623307	-71.246396
666.771571	-71.599955
666.919902	-72.000842
667.068298	-72.440365
667.216761	-72.889822
667.365289	-73.298426
667.513884	-73.588140
667.662545	-73.685863
667.811272	-73.552581
667.960065	-73.215098
668.108925	-72.732823
668.257851	-72.158081
668.406843	-71.535464
668.555902	-70.890134
668.705027	-70.257606
668.854219	-69.664059
669.003478	-69.138238
669.152803	-68.696567
669.302195	-68.343141
669.451653	-68.075396
669.601179	-67.884985
669.750771	-67.772496
669.900430	-67.743469
670.050156	-67.803174
670.199949	-67.959403
670.349808	-68.204690
670.499735	-68.530918
670.649729	-68.917032
670.799790	-69.329518
670.949918	-69.734702
671.100114	-70.092249
671.250377	-70.359372
671.400707	-70.487782
671.551104	-70.422582
671.701569	-70.140921
671.852101	-69.672371
672.002700	-69.095919
672.153368	-68.486200
672.304102	-67.900069
672.454905	-67.358577
672.605775	-66.867363
672.756713	-66.426820
672.907718	-66.041822
673.058791	-65.721037
673.209933	-65.480200
673.361142	-65.325151
673.512419	-65.253620
673.663764	-65.255631
673.815177	-65.318418
673.966658	-65.437465
674.118207	-65.615832
674.269825	-65.861422
674.421510	-66.174260
674.573264	-66.538837
674.725086	-66.920393
674.876977	-67.263232
675.028936	-67.510880
675.180963	-67.622755
675.333059	-67.580245
675.485224	-67.387652
675.637457	-67.053954
675.789758	-66.605535
675.942129	-66.073806
676.094568	-65.512315
676.247075	-64.967754
676.399652	-64.476886
676.552298	-64.059681
676.705012	-63.721016
676.857795	-63.453965
677.010648	-63.256347
677.163569	-63.122549
677.316560	-63.058482
677.469619	-63.069926
677.622748	-63.160670
677.775946	-63.325382
677.929214	-63.547881
678.082551	-63.807811
678.235957	-64.086100
678.389432	-64.366629
678.542977	-64.640790
678.696592	-64.887210
678.850276	-65.069787
679.004030	-65.137453
679.157853	-65.058384
679.311746	-64.832078
679.465709	-64.493003
679.619742	-64.085857
679.773844	-63.646822
679.928017	-63.201450
680.082259	-62.762559
680.236571	-62.347071
680.390954	-61.975283
680.545406	-61.664084
680.699929	-61.427931
680.854522	-61.270850
681.009185	-61.189766
681.163918	-61.177711
681.318722	-61.230279
681.473596	-61.344514
681.628540	-61.521364
681.783555	-61.758077
681.938641	-62.041945
682.093797	-62.346889
682.249023	-62.635642
682.404321	-62.866840
682.559689	-63.011091
682.715128	-63.050647
682.870637	-62.978556
683.026218	-62.791788
683.181869	-62.501016
683.337591	-62.127932
683.493385	-61.709607
683.649249	-61.286351
683.805185	-60.890104
683.961191	-60.538631
684.117269	-60.238365
684.273418	-59.990375
684.429639	-59.797380
684.585930	-59.663156
684.742294	-59.595873
684.898728	-59.599710
685.055234	-59.673964
685.211812	-59.808987
685.368461	-59.991560
685.525182	-60.207894
685.681975	-60.443389
685.838839	-60.686625
685.995775	-60.917761
686.152783	-61.106441
686.309863	-61.215854
686.467014	-61.212649
686.624238	-61.090048
686.781534	-60.858505
686.938902	-60.551055
687.096342	-60.195787
687.253854	-59.820616
687.411438	-59.445187
687.569095	-59.088665
687.726824	-58.769198
687.884626	-58.504729
688.042499	-58.308301
688.200446	-58.184909
688.358465	-58.132212
688.516556	-58.143781
688.674720	-58.214148
688.832957	-58.340857
688.991266	-58.520082
689.149649	-58.746122
689.308104	-58.997725
689.466632	-59.247622
689.625233	-59.459485
689.783906	-59.599420
689.942653	-59.646990
690.101473	-59.593713
690.260367	-59.446050
690.419333	-59.213786
690.578372	-58.914562
690.737485	-58.571516
690.896672	-58.214535
691.055931	-57.873783
691.215264	-57.571823
691.374671	-57.320351
691.534151	-57.123412
691.693704	-56.982167
691.853332	-56.897050
692.013033	-56.873290
692.172807	-56.913077
692.332656	-57.016201
692.492578	-57.172849
692.652575	-57.368045
692.812645	-57.583020
692.972789	-57.800370
693.133007	-58.002003
693.293300	-58.165550
693.453666	-58.262207
693.614107	-58.264603
693.774622	-58.157438
693.935211	-57.950747
694.095875	-57.671450
694.256613	-57.351837
694.417426	-57.017923
694.578313	-56.689371
694.739274	-56.380947
694.900311	-56.111711
695.061421	-55.897730
695.222607	-55.754670
695.383868	-55.686098
695.545203	-55.686429
695.706613	-55.745558
695.868098	-55.856656
696.029658	-56.017834
696.191293	-56.226364
696.353003	-56.467440
696.514789	-56.711489
696.676649	-56.917759
696.838585	-57.051966
697.000596	-57.092812
697.162682	-57.040125
697.324844	-56.897667
697.487081	-56.672713
697.649394	-56.377973
697.811782	-56.039215
697.974246	-55.695902
698.136786	-55.382835
698.299401	-55.120457
698.462092	-54.912976
698.624859	-54.757527
698.787702	-54.656430
698.950621	-54.616208
699.113616	-54.646631
699.276686	-54.748091
699.439833	-54.908895
699.603056	-55.108583
699.766355	-55.324209
699.929731	-55.540178
700.093183	-55.742917
700.256711	-55.911704
700.420315	-56.013666
700.583996	-56.013067
700.747754	-55.894080
700.911588	-55.674214
701.075499	-55.389847
701.239486	-55.075161
701.403550	-54.751794
701.567691	-54.435934
701.731909	-54.145128
701.896203	-53.902650
702.060575	-53.728157
702.225024	-53.632179
702.389549	-53.611008
702.554152	-53.655651
702.718832	-53.757479
702.883589	-53.915605
703.048424	-54.128396
703.213335	-54.384376
703.378324	-54.653234
703.543391	-54.891663
703.708535	-55.058362
703.873757	-55.129761
704.039056	-55.098734
704.204433	-54.964747
704.369887	-54.732139
704.535420	-54.416989
704.701030	-54.055571
704.866718	-53.693444
705.032484	-53.368993
705.198328	-53.101790
705.364250	-52.897183
705.530250	-52.756761
705.696328	-52.687206
705.862485	-52.697785
706.028720	-52.793247
706.195033	-52.965030
706.361424	-53.193964
706.527894	-53.454905
706.694442	-53.724215
706.861069	-53.979176
707.027775	-54.192169
707.194559	-54.323187
707.361422	-54.331286
707.528363	-54.200644
707.695384	-53.953525
707.862483	-53.633869
708.029661	-53.284512
708.196918	-52.932535
708.364254	-52.599290
708.531670	-52.306412
708.699164	-52.077652
708.866738	-51.930713
709.034391	-51.871643
709.202123	-51.895241
709.369935	-51.993634
709.537826	-52.160741
709.705796	-52.391353
709.873847	-52.673368
710.041976	-52.979309
710.210186	-53.266465
710.378475	-53.485943
710.546844	-53.598968
710.715292	-53.585103
710.883821	-53.443248
711.052429	-53.187109
711.221118	-52.845804
711.389887	-52.461263
711.558735	-52.080543
711.727664	-51.742014
711.896673	-51.469155
712.065763	-51.271790
712.234932	-51.154686
712.404183	-51.121927
712.573513	-51.178636
712.742924	-51.325037
712.912416	-51.552422
713.081988	-51.839827
713.251641	-52.157843
713.421375	-52.471260
713.591190	-52.740956
713.761085	-52.919985
713.931061	-52.966106
714.101119	-52.857728
714.271257	-52.611234
714.441476	-52.267741
714.611777	-51.880524
714.782159	-51.493690
714.952622	-51.142270
715.123166	-50.850705
715.293792	-50.638422
715.464499	-50.517197
715.635288	-50.492207
715.806158	-50.561051
715.977110	-50.716887
716.148143	-50.949517
716.319259	-51.243749
716.490456	-51.572500
716.661735	-51.894760
716.833096	-52.157573
717.004538	-52.311100
717.176063	-52.323317
717.347670	-52.187810
717.519359	-51.925056
717.691130	-51.575580
717.862984	-51.190028
718.034920	-50.817594
718.206938	-50.495438
718.379039	-50.245007
718.551222	-50.076774
718.723488	-49.995296
718.895836	-50.005720
719.068267	-50.109578
719.240781	-50.300773
719.413377	-50.560576
719.586057	-50.860559
719.758819	-51.165997
719.931664	-51.437427
720.104593	-51.631369
720.277604	-51.705303
720.450699	-51.634171
720.623876	-51.425775
720.797137	-51.121519
720.970482	-50.774610
721.143910	-50.429456
721.317421	-50.117254
721.491016	-49.860431
721.664694	-49.678869
721.838456	-49.586668
722.012302	-49.588764
722.186231	-49.680400
722.360244	-49.847967
722.534342	-50.075068
722.708523	-50.342213
722.882788	-50.622078
723.057137	-50.873843
723.231570	-51.047847
723.406088	-51.103433
723.580689	-51.026561
723.755375	-50.835571
723.930146	-50.565901
724.105000	-50.256136
724.279940	-49.943520
724.454963	-49.662616
724.630072	-49.443074
724.805265	-49.303857
724.980543	-49.251164
725.155905	-49.281749
725.331353	-49.388481
725.506885	-49.563038
725.682503	-49.791278
725.858205	-50.045935
726.033993	-50.285300
726.209865	-50.465810
726.385823	-50.553520
726.561866	-50.533047
726.737995	-50.405495
726.914209	-50.188487
727.090508	-49.915260
727.266893	-49.628339
727.443364	-49.369155
727.619920	-49.165726
727.796562	-49.032649
727.973290	-48.974299
728.150103	-48.992924
728.327003	-49.087325
728.503988	-49.248713
728.681060	-49.456060
728.858218	-49.677006
729.035461	-49.874753
729.212791	-50.015892
729.390208	-50.074755
729.567710	-50.036675
729.745299	-49.901875
