# 2022-03-22_11.38.45
# shape = sech2
# FWHM_ps = 0.11
# carrier_nm = 1542
# frep_MHz = 12126
# pow_mW = 8000
# GDD = 0.0
# propa_len = 0.13933333333333334
# untap_len = 0.01
# taper_len = 0.07933333333333334
# waist_len = 0.02
# uptap_len = 0.02
# untap_scale = 1.0
# waist_scale = 0.2578947368421053
# workingDir = NL_20110305_12 (Spirou)
# axis = slow
# window_ps = 10.0
# steps = 200
# points = 21700
# 
# wavelength [nm]	 power spectral density [dB]
600.043425	-84.551917
600.163550	-84.806501
600.283723	-85.001791
600.403943	-85.120792
600.524212	-85.164730
600.644529	-85.151278
600.764895	-85.108963
600.885308	-85.067507
601.005770	-85.051222
601.126280	-85.077453
601.246839	-85.157403
601.367446	-85.290171
601.488101	-85.459192
601.608804	-85.635572
601.729557	-85.783247
601.850357	-85.863423
601.971206	-85.845452
602.092104	-85.719063
602.213050	-85.497441
602.334045	-85.211074
602.455089	-84.897263
602.576181	-84.591172
602.697322	-84.321490
602.818511	-84.110841
602.939749	-83.973601
603.061036	-83.915761
603.182372	-83.934857
603.303757	-84.023394
603.425191	-84.167852
603.546673	-84.344895
603.668204	-84.524003
603.789785	-84.675316
603.911414	-84.776256
604.033092	-84.816982
604.154820	-84.803511
604.276596	-84.753979
604.398422	-84.694012
604.520297	-84.651350
604.642220	-84.646874
604.764193	-84.694321
604.886216	-84.802269
605.008287	-84.971831
605.130408	-85.193738
605.252578	-85.447602
605.374798	-85.703500
605.497066	-85.923965
605.619385	-86.071177
605.741752	-86.116102
605.864169	-86.048120
605.986636	-85.880737
606.109152	-85.643260
606.231718	-85.373812
606.354333	-85.107896
606.476998	-84.869985
606.599712	-84.673636
606.722476	-84.528382
606.845290	-84.440537
606.968154	-84.408878
607.091067	-84.425615
607.214030	-84.479140
607.337043	-84.557060
607.460106	-84.643209
607.583219	-84.718942
607.706381	-84.767713
607.829594	-84.778446
607.952856	-84.749387
608.076169	-84.689749
608.199531	-84.615932
608.322944	-84.541962
608.446407	-84.480820
608.569920	-84.447375
608.693483	-84.455506
608.817096	-84.512474
608.940759	-84.617395
609.064473	-84.765815
609.188237	-84.948190
609.312051	-85.149684
609.435916	-85.349242
609.559831	-85.521345
609.683796	-85.642869
609.807812	-85.699545
609.931878	-85.689650
610.055995	-85.622122
610.180162	-85.510463
610.304380	-85.374423
610.428648	-85.239014
610.552967	-85.126416
610.677337	-85.046658
610.801757	-85.001731
610.926228	-84.990036
611.050750	-85.008045
611.175323	-85.046776
611.299946	-85.092917
611.424620	-85.132923
611.549345	-85.158335
611.674121	-85.166284
611.798948	-85.157028
611.923826	-85.132968
612.048755	-85.100158
612.173734	-85.066717
612.298765	-85.040515
612.423847	-85.026381
612.548980	-85.026749
612.674165	-85.041671
612.799400	-85.073540
612.924687	-85.121461
613.050025	-85.182380
613.175414	-85.253558
613.300854	-85.335809
613.426346	-85.429119
613.551889	-85.528723
613.677484	-85.625512
613.803130	-85.716125
613.928827	-85.803362
614.054576	-85.886234
614.180377	-85.962679
614.306229	-86.040073
614.432132	-86.130911
614.558087	-86.240672
614.684094	-86.370341
614.810153	-86.521798
614.936263	-86.696591
615.062425	-86.886692
615.188639	-87.079822
615.314904	-87.263404
615.441222	-87.419758
615.567591	-87.535256
615.694012	-87.601949
615.820486	-87.617418
615.947011	-87.587753
616.073588	-87.535785
616.200217	-87.487362
616.326898	-87.459109
616.453632	-87.468196
616.580417	-87.529122
616.707255	-87.647082
616.834144	-87.821328
616.961086	-88.056861
617.088081	-88.353612
617.215127	-88.693680
617.342226	-89.050761
617.469378	-89.399324
617.596581	-89.714859
617.723837	-89.975022
617.851146	-90.175661
617.978507	-90.325480
618.105920	-90.434904
618.233386	-90.524695
618.360905	-90.618998
618.488476	-90.738660
618.616100	-90.897859
618.743777	-91.122097
618.871506	-91.430639
618.999288	-91.821777
619.127123	-92.272079
619.255011	-92.753689
619.382951	-93.224378
619.510945	-93.611496
619.638991	-93.821904
619.767090	-93.803353
619.895243	-93.563623
620.023448	-93.133258
620.151706	-92.576427
620.280017	-92.001849
620.408382	-91.497629
620.536799	-91.093099
620.665270	-90.804919
620.793794	-90.657520
620.922371	-90.663750
621.051002	-90.817812
621.179686	-91.127974
621.308423	-91.624144
621.437213	-92.313074
621.566057	-93.174324
621.694954	-94.174161
621.823905	-95.221490
621.952909	-96.082403
622.081967	-96.457460
622.211079	-96.191509
622.340244	-95.391773
622.469462	-94.346973
622.598735	-93.315174
622.728061	-92.410970
622.857441	-91.667849
622.986874	-91.108996
623.116361	-90.735283
623.245903	-90.528074
623.375498	-90.475874
623.505147	-90.578970
623.634850	-90.827530
623.764606	-91.204531
623.894417	-91.689019
624.024282	-92.233102
624.154201	-92.751105
624.284174	-93.149186
624.414202	-93.328829
624.544283	-93.210867
624.674419	-92.823557
624.804609	-92.265383
624.934853	-91.620167
625.065151	-90.969456
625.195504	-90.398312
625.325911	-89.943798
625.456373	-89.607639
625.586889	-89.398818
625.717460	-89.330518
625.848085	-89.397120
625.978764	-89.580824
626.109498	-89.857117
626.240287	-90.185059
626.371131	-90.506794
626.502029	-90.742697
626.632982	-90.793138
626.763989	-90.592984
626.895052	-90.155813
627.026169	-89.536359
627.157341	-88.813079
627.288568	-88.076305
627.419850	-87.391740
627.551187	-86.788465
627.682579	-86.284358
627.814026	-85.893564
627.945528	-85.621458
628.077085	-85.467746
628.208697	-85.437465
628.340364	-85.532605
628.472087	-85.749016
628.603865	-86.084166
628.735698	-86.535729
628.867586	-87.087658
628.999530	-87.710318
629.131529	-88.352726
629.263584	-88.915515
629.395694	-89.258620
629.527859	-89.282623
629.660080	-88.962143
629.792357	-88.355430
629.924689	-87.594451
630.057077	-86.795858
630.189520	-86.025932
630.322019	-85.332769
630.454574	-84.753307
630.587184	-84.294406
630.719851	-83.949743
630.852573	-83.722557
630.985351	-83.618156
631.118185	-83.630523
631.251075	-83.756345
631.384021	-84.000618
631.517023	-84.359666
631.650081	-84.819342
631.783195	-85.370516
631.916365	-86.000568
632.049592	-86.666036
632.182874	-87.296856
632.316213	-87.799306
632.449608	-88.054426
632.583059	-87.983314
632.716567	-87.602038
632.850131	-87.002562
632.983751	-86.298171
633.117428	-85.585509
633.251161	-84.927417
633.384951	-84.352570
633.518797	-83.879825
633.652700	-83.518134
633.786660	-83.264201
633.920676	-83.113559
634.054749	-83.066486
634.188879	-83.120413
634.323065	-83.267421
634.457308	-83.502465
634.591608	-83.816063
634.725965	-84.185289
634.860379	-84.576106
634.994850	-84.946713
635.129377	-85.242954
635.263962	-85.404514
635.398604	-85.398520
635.533303	-85.221883
635.668058	-84.896655
635.802872	-84.471043
635.937742	-83.999722
636.072669	-83.524333
636.207654	-83.077895
636.342696	-82.681490
636.477796	-82.348177
636.612953	-82.087906
636.748167	-81.906458
636.883439	-81.805087
637.018768	-81.781769
637.154155	-81.832371
637.289599	-81.946563
637.425101	-82.111454
637.560660	-82.310120
637.696277	-82.523453
637.831952	-82.726414
637.967685	-82.886904
638.103475	-82.970651
638.239324	-82.952563
638.375230	-82.818196
638.511194	-82.571322
638.647215	-82.235721
638.783295	-81.844685
638.919433	-81.426910
639.055629	-81.009698
639.191883	-80.617361
639.328195	-80.267087
639.464565	-79.967713
639.600994	-79.724456
639.737481	-79.544983
639.874025	-79.434426
640.010629	-79.395264
640.147290	-79.425745
640.284010	-79.522812
640.420789	-79.681138
640.557625	-79.893257
640.694521	-80.148357
640.831474	-80.429607
640.968487	-80.712912
641.105558	-80.967970
641.242687	-81.161892
641.379876	-81.267561
641.517123	-81.266144
641.654429	-81.151141
641.791793	-80.926094
641.929216	-80.609949
642.066699	-80.234476
642.204240	-79.832707
642.341840	-79.429658
642.479499	-79.046514
642.617217	-78.699913
642.754994	-78.399803
642.892830	-78.153829
643.030726	-77.967324
643.168680	-77.841140
643.306694	-77.772712
643.444767	-77.765979
643.582899	-77.823127
643.721091	-77.940121
643.859342	-78.112505
643.997652	-78.339506
644.136022	-78.616006
644.274451	-78.929321
644.412940	-79.268605
644.551488	-79.620587
644.690096	-79.959516
644.828763	-80.255786
644.967490	-80.488226
645.106277	-80.636873
645.245124	-80.681156
645.384030	-80.616926
645.522997	-80.459524
645.662023	-80.229261
645.801109	-79.950112
645.940255	-79.649612
646.079460	-79.351545
646.218726	-79.072123
646.358052	-78.825477
646.497438	-78.621871
646.636884	-78.464118
646.776391	-78.354617
646.915957	-78.300073
647.055584	-78.304911
647.195271	-78.369957
647.335019	-78.496370
647.474826	-78.685644
647.614695	-78.938311
647.754623	-79.255749
647.894612	-79.637706
648.034662	-80.082969
648.174772	-80.589998
648.314943	-81.157105
648.455174	-81.779848
648.595466	-82.447580
648.735819	-83.143819
648.876233	-83.845232
649.016707	-84.527592
649.157242	-85.159787
649.297838	-85.695394
649.438495	-86.090856
649.579213	-86.328195
649.719992	-86.401322
649.860832	-86.331327
650.001733	-86.168047
650.142695	-85.954092
650.283718	-85.721296
650.424803	-85.509829
650.565949	-85.347264
650.707156	-85.244347
650.848424	-85.211446
650.989754	-85.260497
651.131145	-85.404394
651.272597	-85.649106
651.414111	-86.001960
651.555687	-86.476194
651.697324	-87.084920
651.839022	-87.840804
651.980782	-88.776201
652.122604	-89.942229
652.264488	-91.404104
652.406433	-93.255254
652.548441	-95.675840
652.690510	-98.992552
652.832640	-103.464707
652.974833	-105.271793
653.117088	-100.994830
653.259405	-97.210062
653.401784	-94.518320
653.544224	-92.507520
653.686727	-90.952559
653.829293	-89.737825
653.971920	-88.775344
654.114609	-87.999986
654.257361	-87.374931
654.400175	-86.870123
654.543052	-86.465581
654.685991	-86.140384
654.828992	-85.865355
654.972056	-85.615882
655.115183	-85.378936
655.258372	-85.142282
655.401623	-84.885155
655.544937	-84.583332
655.688314	-84.230997
655.831754	-83.845153
655.975256	-83.423393
656.118822	-82.960730
656.262450	-82.478865
656.406141	-81.994217
656.549894	-81.509916
656.693711	-81.026640
656.837591	-80.551953
656.981534	-80.099654
657.125540	-79.674739
657.269610	-79.273230
657.413742	-78.898059
657.557938	-78.554214
657.702196	-78.237619
657.846519	-77.945568
657.990904	-77.675747
658.135353	-77.427501
658.279866	-77.200532
658.424441	-76.991504
658.569081	-76.794169
658.713784	-76.606271
658.858550	-76.426249
659.003381	-76.254089
659.148274	-76.090878
659.293232	-75.936115
659.438253	-75.791174
659.583339	-75.658118
659.728488	-75.535307
659.873701	-75.420246
660.018978	-75.314538
660.164318	-75.219854
660.309723	-75.135229
660.455192	-75.056538
660.600725	-74.983387
660.746323	-74.914010
660.891984	-74.844645
661.037710	-74.771539
661.183500	-74.695984
661.329354	-74.618302
661.475272	-74.535230
661.621255	-74.446739
661.767303	-74.351772
661.913415	-74.249601
662.059591	-74.139209
662.205833	-74.022250
662.352138	-73.901623
662.498509	-73.775201
662.644944	-73.643014
662.791443	-73.510609
662.938008	-73.379524
663.084638	-73.249212
663.231332	-73.123261
663.378091	-73.006553
663.524915	-72.899555
663.671804	-72.802497
663.818759	-72.717916
663.965778	-72.646081
664.112863	-72.586717
664.260012	-72.540025
664.407227	-72.507147
664.554507	-72.487365
664.701853	-72.477496
664.849264	-72.477784
664.996740	-72.489255
665.144282	-72.509925
665.291889	-72.539060
665.439561	-72.577032
665.587300	-72.622912
665.735103	-72.672793
665.882973	-72.724389
666.030908	-72.777564
666.178909	-72.830315
666.326976	-72.880834
666.475109	-72.926575
666.623307	-72.966030
666.771571	-72.997821
666.919902	-73.022319
667.068298	-73.042308
667.216761	-73.058764
667.365289	-73.070278
667.513884	-73.078787
667.662545	-73.087631
667.811272	-73.097211
667.960065	-73.105683
668.108925	-73.113594
668.257851	-73.121760
668.406843	-73.128247
668.555902	-73.129619
668.705027	-73.128911
668.854219	-73.125853
669.003478	-73.118290
669.152803	-73.107255
669.302195	-73.095593
669.451653	-73.084958
669.601179	-73.075147
669.750771	-73.069539
669.900430	-73.074192
670.050156	-73.087900
670.199949	-73.111083
670.349808	-73.149799
670.499735	-73.206431
670.649729	-73.279357
670.799790	-73.367547
670.949918	-73.476118
671.100114	-73.604449
671.250377	-73.747218
671.400707	-73.908153
671.551104	-74.085156
671.701569	-74.270360
671.852101	-74.460356
672.002700	-74.656061
672.153368	-74.856104
672.304102	-75.053562
672.454905	-75.246270
672.605775	-75.436639
672.756713	-75.623839
672.907718	-75.807698
673.058791	-75.991778
673.209933	-76.177465
673.361142	-76.363112
673.512419	-76.552184
673.663764	-76.745234
673.815177	-76.934088
673.966658	-77.119992
674.118207	-77.305859
674.269825	-77.485090
674.421510	-77.647564
674.573264	-77.791392
674.725086	-77.921100
674.876977	-78.031398
675.028936	-78.117592
675.180963	-78.180646
675.333059	-78.225317
675.485224	-78.257013
675.637457	-78.280630
675.789758	-78.301067
675.942129	-78.322929
676.094568	-78.354636
676.247075	-78.397809
676.399652	-78.450690
676.552298	-78.518798
676.705012	-78.601905
676.857795	-78.692145
677.010648	-78.777705
677.163569	-78.856159
677.316560	-78.925533
677.469619	-78.976461
677.622748	-79.004093
677.775946	-79.005261
677.929214	-78.978751
678.082551	-78.922930
678.235957	-78.837169
678.389432	-78.712945
678.542977	-78.549453
678.696592	-78.350811
678.850276	-78.115398
679.004030	-77.844772
679.157853	-77.545009
679.311746	-77.227375
679.465709	-76.898557
679.619742	-76.566530
679.773844	-76.236956
679.928017	-75.914206
680.082259	-75.600364
680.236571	-75.296038
680.390954	-75.003807
680.545406	-74.719931
680.699929	-74.445022
680.854522	-74.178935
681.009185	-73.920988
681.163918	-73.665875
681.318722	-73.414858
681.473596	-73.167396
681.628540	-72.921234
681.783555	-72.675176
681.938641	-72.429026
682.093797	-72.185813
682.249023	-71.947509
682.404321	-71.717989
682.559689	-71.497868
682.715128	-71.290096
682.870637	-71.098079
683.026218	-70.924499
683.181869	-70.769421
683.337591	-70.630358
683.493385	-70.505776
683.649249	-70.394666
683.805185	-70.293516
683.961191	-70.197353
684.117269	-70.102618
684.273418	-70.006609
684.429639	-69.906932
684.585930	-69.801893
684.742294	-69.693657
684.898728	-69.582443
685.055234	-69.467538
685.211812	-69.352865
685.368461	-69.241449
685.525182	-69.133953
685.681975	-69.031112
685.838839	-68.935544
685.995775	-68.847890
686.152783	-68.767868
686.309863	-68.695353
686.467014	-68.629494
686.624238	-68.569125
686.781534	-68.512905
686.938902	-68.457777
687.096342	-68.401851
687.253854	-68.343391
687.411438	-68.280474
687.569095	-68.211187
687.726824	-68.134820
687.884626	-68.052786
688.042499	-67.966215
688.200446	-67.876019
688.358465	-67.785261
688.516556	-67.695588
688.674720	-67.608393
688.832957	-67.524230
688.991266	-67.445054
689.149649	-67.370875
689.308104	-67.299339
689.466632	-67.229242
689.625233	-67.159713
689.783906	-67.090127
689.942653	-67.017943
690.101473	-66.943514
690.260367	-66.866433
690.419333	-66.786376
690.578372	-66.703376
690.737485	-66.620891
690.896672	-66.539327
691.055931	-66.458343
691.215264	-66.381141
691.374671	-66.309589
691.534151	-66.243616
691.693704	-66.184547
691.853332	-66.133710
692.013033	-66.090193
692.172807	-66.053122
692.332656	-66.022890
692.492578	-65.997668
692.652575	-65.974590
692.812645	-65.952938
692.972789	-65.932544
693.133007	-65.911402
693.293300	-65.888144
693.453666	-65.861831
693.614107	-65.833616
693.774622	-65.803593
693.935211	-65.770898
694.095875	-65.736669
694.256613	-65.703365
694.417426	-65.671734
694.578313	-65.642625
694.739274	-65.618525
694.900311	-65.600744
695.061421	-65.589960
695.222607	-65.586865
695.383868	-65.591371
695.545203	-65.602720
695.706613	-65.619871
695.868098	-65.642155
696.029658	-65.667816
696.191293	-65.696294
696.353003	-65.724825
696.514789	-65.752661
696.676649	-65.779924
696.838585	-65.806502
697.000596	-65.831385
697.162682	-65.855883
697.324844	-65.880464
697.487081	-65.906455
697.649394	-65.935197
697.811782	-65.967032
697.974246	-66.002827
698.136786	-66.042482
698.299401	-66.086934
698.462092	-66.135405
698.624859	-66.187084
698.787702	-66.239710
698.950621	-66.293024
699.113616	-66.344719
699.276686	-66.393380
699.439833	-66.437619
699.603056	-66.479302
699.766355	-66.518580
699.929731	-66.555619
700.093183	-66.592333
700.256711	-66.631417
700.420315	-66.673860
700.583996	-66.720405
700.747754	-66.773389
700.911588	-66.833961
701.075499	-66.902783
701.239486	-66.979087
701.403550	-67.062705
701.567691	-67.153307
701.731909	-67.249983
701.896203	-67.350497
702.060575	-67.453569
702.225024	-67.555486
702.389549	-67.655058
702.554152	-67.752728
702.718832	-67.851618
702.883589	-67.950643
703.048424	-68.051207
703.213335	-68.156870
703.378324	-68.271153
703.543391	-68.396881
703.708535	-68.534061
703.873757	-68.681175
704.039056	-68.838717
704.204433	-69.005994
704.369887	-69.179085
704.535420	-69.352605
704.701030	-69.522405
704.866718	-69.686689
705.032484	-69.841149
705.198328	-69.980536
705.364250	-70.105223
705.530250	-70.218940
705.696328	-70.323190
705.862485	-70.420880
706.028720	-70.517234
706.195033	-70.617519
706.361424	-70.725764
706.527894	-70.843457
706.694442	-70.968158
706.861069	-71.099222
707.027775	-71.232701
707.194559	-71.360871
707.361422	-71.475861
707.528363	-71.573290
707.695384	-71.648116
707.862483	-71.691977
708.029661	-71.702510
708.196918	-71.683131
708.364254	-71.636924
708.531670	-71.565773
708.699164	-71.479069
708.866738	-71.385163
709.034391	-71.289615
709.202123	-71.195398
709.369935	-71.106977
709.537826	-71.022442
709.705796	-70.936791
709.873847	-70.846490
710.041976	-70.744770
710.210186	-70.624468
710.378475	-70.482710
710.546844	-70.321143
710.715292	-70.143043
710.883821	-69.952695
711.052429	-69.752892
711.221118	-69.552874
711.389887	-69.359941
711.558735	-69.176116
711.727664	-69.001525
711.896673	-68.836263
712.065763	-68.682926
712.234932	-68.538384
712.404183	-68.393952
712.573513	-68.247271
712.742924	-68.098847
712.912416	-67.944100
713.081988	-67.779407
713.251641	-67.606387
713.421375	-67.429408
713.591190	-67.251949
713.761085	-67.075355
713.931061	-66.905024
714.101119	-66.744468
714.271257	-66.595028
714.441476	-66.457370
714.611777	-66.329792
714.782159	-66.211737
714.952622	-66.100444
715.123166	-65.993734
715.293792	-65.887947
715.464499	-65.780244
715.635288	-65.670434
715.806158	-65.556841
715.977110	-65.437179
716.148143	-65.313392
716.319259	-65.189164
716.490456	-65.065439
716.661735	-64.942912
716.833096	-64.826105
717.004538	-64.718995
717.176063	-64.621837
717.347670	-64.532693
717.519359	-64.454604
717.691130	-64.385591
717.862984	-64.322600
718.034920	-64.263461
718.206938	-64.207043
718.379039	-64.150150
718.551222	-64.090296
718.723488	-64.027855
718.895836	-63.962808
719.068267	-63.893958
719.240781	-63.823387
719.413377	-63.754631
719.586057	-63.691372
719.758819	-63.634512
719.931664	-63.586864
720.104593	-63.549952
720.277604	-63.523799
720.450699	-63.506576
720.623876	-63.496744
720.797137	-63.490964
720.970482	-63.488230
721.143910	-63.486104
721.317421	-63.483869
721.491016	-63.481535
721.664694	-63.478677
721.838456	-63.478293
722.012302	-63.480906
722.186231	-63.488566
722.360244	-63.503086
722.534342	-63.526398
722.708523	-63.559412
722.882788	-63.601749
723.057137	-63.653199
723.231570	-63.713769
723.406088	-63.781834
723.580689	-63.856407
723.755375	-63.935537
723.930146	-64.017941
724.105000	-64.104496
724.279940	-64.196083
724.454963	-64.294723
724.630072	-64.402950
724.805265	-64.523769
724.980543	-64.661176
725.155905	-64.817310
725.331353	-64.992701
725.506885	-65.187700
725.682503	-65.401590
725.858205	-65.633249
726.033993	-65.881617
726.209865	-66.145740
726.385823	-66.425720
726.561866	-66.722939
726.737995	-67.040626
726.914209	-67.385337
727.090508	-67.760885
727.266893	-68.175274
727.443364	-68.634356
727.619920	-69.143531
727.796562	-69.710115
727.973290	-70.340251
728.150103	-71.043939
728.327003	-71.829531
728.503988	-72.714335
728.681060	-73.723564
728.858218	-74.894202
729.035461	-76.282609
729.212791	-77.984735
729.390208	-80.178644
729.567710	-83.215746
