# 2022-03-22_11.53.17
# shape = sech2
# FWHM_ps = 0.11
# carrier_nm = 1542
# frep_MHz = 12126
# pow_mW = 8000
# GDD = 0.0
# propa_len = 0.13933333333333334
# untap_len = 0.01
# taper_len = 0.07933333333333334
# waist_len = 0.02
# uptap_len = 0.02
# untap_scale = 1.0
# waist_scale = 0.4
# workingDir = NL_20110305_12 (Spirou)
# axis = slow
# window_ps = 10.0
# steps = 200
# points = 21700
# 
# wavelength [nm]	 power spectral density [dB]
600.043425	-156.456032
600.163550	-157.047387
600.283723	-157.241657
600.403943	-157.035120
600.524212	-156.531065
600.644529	-155.841190
600.764895	-155.042837
600.885308	-154.194887
601.005770	-153.358814
601.126280	-152.601038
601.246839	-151.984263
601.367446	-151.560651
601.488101	-151.371038
601.608804	-151.448355
601.729557	-151.822663
601.850357	-152.526371
601.971206	-153.599041
602.092104	-155.090491
602.213050	-157.055546
602.334045	-159.507933
602.455089	-162.203624
602.576181	-164.114360
602.697322	-164.119663
602.818511	-163.129408
602.939749	-162.324201
603.061036	-162.026555
603.182372	-162.181875
603.303757	-162.557299
603.425191	-162.748853
603.546673	-162.359137
603.668204	-161.382111
603.789785	-160.160776
603.911414	-158.994706
604.033092	-158.007329
604.154820	-157.207256
604.276596	-156.554115
604.398422	-155.998767
604.520297	-155.509722
604.642220	-155.088621
604.764193	-154.771591
604.886216	-154.619078
605.008287	-154.703671
605.130408	-155.103975
605.252578	-155.906101
605.374798	-157.206925
605.497066	-159.089682
605.619385	-161.410010
605.741752	-162.916906
605.864169	-161.748464
605.986636	-159.301804
606.109152	-157.168172
606.231718	-155.623900
606.354333	-154.609383
606.476998	-154.035718
606.599712	-153.819265
606.722476	-153.864172
606.845290	-154.035446
606.968154	-154.152663
607.091067	-154.053711
607.214030	-153.716582
607.337043	-153.294978
607.460106	-153.016573
607.583219	-153.088629
607.706381	-153.688931
607.829594	-155.005557
607.952856	-157.269743
608.076169	-160.466123
608.199531	-161.873496
608.322944	-158.886674
608.446407	-155.818886
608.569920	-153.860773
608.693483	-152.879423
608.817096	-152.750689
608.940759	-153.457161
609.064473	-155.105553
609.188237	-158.022461
609.312051	-163.168201
609.435916	-173.262935
609.559831	-166.811845
609.683796	-161.448898
609.807812	-158.711653
609.931878	-156.871332
610.055995	-155.221611
610.180162	-153.553367
610.304380	-151.971381
610.428648	-150.646898
610.552967	-149.690185
610.677337	-149.149705
610.801757	-149.042124
610.926228	-149.374238
611.050750	-150.155636
611.175323	-151.408252
611.299946	-153.179619
611.424620	-155.570908
611.549345	-158.805794
611.674121	-163.374843
611.798948	-168.937585
611.923826	-166.275135
612.048755	-161.317508
612.173734	-157.876079
612.298765	-155.349254
612.423847	-153.398634
612.548980	-151.870656
612.674165	-150.692411
612.799400	-149.829435
612.924687	-149.268001
613.050025	-149.006702
613.175414	-149.052070
613.300854	-149.416289
613.426346	-150.116103
613.551889	-151.171669
613.677484	-152.603026
613.803130	-154.419268
613.928827	-156.591993
614.054576	-159.010510
614.180377	-161.473915
614.306229	-163.861586
614.432132	-166.271513
614.558087	-167.796227
614.684094	-165.617843
614.810153	-161.834187
614.936263	-158.789177
615.062425	-156.710847
615.188639	-155.484019
615.314904	-154.994694
615.441222	-155.107186
615.567591	-155.540616
615.694012	-155.736582
615.820486	-155.177432
615.947011	-154.079801
616.073588	-153.070365
616.200217	-152.549196
616.326898	-152.669517
616.453632	-153.444339
616.580417	-154.689251
616.707255	-155.777267
616.834144	-155.874813
616.961086	-155.240282
617.088081	-154.907858
617.215127	-155.627793
617.342226	-158.165368
617.469378	-164.423149
617.596581	-163.622765
617.723837	-155.684874
617.851146	-151.384224
617.978507	-148.787378
618.105920	-147.223030
618.233386	-146.403770
618.360905	-146.179180
618.488476	-146.456640
618.616100	-147.164711
618.743777	-148.220782
618.871506	-149.478261
618.999288	-150.647810
619.127123	-151.310280
619.255011	-151.248868
619.382951	-150.734030
619.510945	-150.211329
619.638991	-149.967002
619.767090	-150.091133
619.895243	-150.476617
620.023448	-150.743347
620.151706	-150.354254
620.280017	-149.228215
620.408382	-147.874716
620.536799	-146.774088
620.665270	-146.158641
620.793794	-146.128110
620.922371	-146.745678
621.051002	-148.058050
621.179686	-149.964552
621.308423	-151.597992
621.437213	-151.128411
621.566057	-149.054942
621.694954	-147.104036
621.823905	-145.790209
621.952909	-145.129223
622.081967	-145.071421
622.211079	-145.585702
622.340244	-146.665414
622.469462	-148.302747
622.598735	-150.377203
622.728061	-152.301865
622.857441	-152.864281
622.986874	-151.950836
623.116361	-150.798308
623.245903	-150.133334
623.375498	-150.182467
623.505147	-151.089279
623.634850	-153.111847
623.764606	-156.717018
623.894417	-160.447141
624.024282	-156.717098
624.154201	-152.386202
624.284174	-149.714701
624.414202	-148.252410
624.544283	-147.753990
624.674419	-148.160806
624.804609	-149.566503
624.934853	-152.279063
625.065151	-156.994170
625.195504	-162.112255
625.325911	-157.924783
625.456373	-154.501421
625.586889	-153.324159
625.717460	-153.996775
625.848085	-156.957829
625.978764	-165.608429
626.109498	-164.964976
626.240287	-155.700477
626.371131	-151.826761
626.502029	-149.890192
626.632982	-149.133794
626.763989	-149.275197
626.895052	-150.181833
627.026169	-151.738024
627.157341	-153.580500
627.288568	-154.464368
627.419850	-153.120334
627.551187	-150.703564
627.682579	-148.516149
627.814026	-146.943505
627.945528	-146.087070
628.077085	-146.040018
628.208697	-146.991848
628.340364	-149.404206
628.472087	-154.814656
628.603865	-176.478989
628.735698	-153.925100
628.867586	-148.597262
628.999530	-146.163783
629.131529	-145.331072
629.263584	-145.837103
629.395694	-147.877509
629.527859	-152.451895
629.660080	-163.319045
629.792357	-154.408497
629.924689	-148.816602
630.057077	-146.328771
630.189520	-145.493372
630.322019	-145.956129
630.454574	-147.770138
630.587184	-151.377249
630.719851	-156.747045
630.852573	-154.513558
630.985351	-149.841381
631.118185	-147.191819
631.251075	-145.869931
631.384021	-145.475722
631.517023	-145.840833
631.650081	-146.937026
631.783195	-148.854103
631.916365	-151.711626
632.049592	-154.560090
632.182874	-153.392746
632.316213	-150.012380
632.449608	-147.409949
632.583059	-145.773555
632.716567	-144.940948
632.850131	-144.803996
632.983751	-145.312557
633.117428	-146.455265
633.251161	-148.240278
633.384951	-150.659784
633.518797	-153.603777
633.652700	-156.680271
633.786660	-158.832579
633.920676	-157.996834
634.054749	-154.455028
634.188879	-150.721892
634.323065	-147.703270
634.457308	-145.480429
634.591608	-143.998573
634.725965	-143.210571
634.860379	-143.101383
634.994850	-143.695776
635.129377	-145.073352
635.263962	-147.408700
635.398604	-151.078258
635.533303	-156.832131
635.668058	-161.288624
635.802872	-156.669431
635.937742	-153.401573
636.072669	-151.560770
636.207654	-150.456001
636.342696	-149.837723
636.477796	-149.645014
636.612953	-149.763657
636.748167	-149.816619
636.883439	-149.281940
637.018768	-148.175350
637.154155	-147.105829
637.289599	-146.611667
637.425101	-147.012220
637.560660	-148.556738
637.696277	-151.248486
637.831952	-152.525264
637.967685	-149.487924
638.103475	-146.391667
638.239324	-144.562202
638.375230	-143.889982
638.511194	-144.268068
638.647215	-145.673404
638.783295	-147.969830
638.919433	-149.960299
639.055629	-149.316543
639.191883	-147.383312
639.328195	-146.092369
639.464565	-145.809244
639.600994	-146.570593
639.737481	-148.478202
639.874025	-151.616383
640.010629	-154.186155
640.147290	-151.953725
640.284010	-148.862640
640.420789	-147.048525
640.557625	-146.530556
640.694521	-147.384337
640.831474	-150.168342
640.968487	-157.390364
641.105558	-159.488585
641.242687	-149.899188
641.379876	-145.895329
641.517123	-144.038241
641.654429	-143.613422
641.791793	-144.499226
641.929216	-146.956368
642.066699	-152.016216
642.204240	-160.489028
642.341840	-152.905344
642.479499	-148.373326
642.617217	-146.364510
642.754994	-145.631256
642.892830	-145.530331
643.030726	-145.501554
643.168680	-145.146394
643.306694	-144.491053
643.444767	-143.840921
643.582899	-143.454872
643.721091	-143.473097
643.859342	-143.974244
643.997652	-144.995143
644.136022	-146.422431
644.274451	-147.650679
644.412940	-147.633070
644.551488	-146.521616
644.690096	-145.475957
644.828763	-145.127639
644.967490	-145.640742
645.106277	-146.881397
645.245124	-147.974350
645.384030	-147.327974
645.522997	-145.390168
645.662023	-143.660867
645.801109	-142.632872
645.940255	-142.317099
646.079460	-142.606542
646.218726	-143.309064
646.358052	-144.099012
646.497438	-144.608129
646.636884	-144.779478
646.776391	-144.977397
646.915957	-145.624815
647.055584	-146.878616
647.195271	-148.142865
647.335019	-147.727137
647.474826	-145.723061
647.614695	-143.884468
647.754623	-142.906979
647.894612	-142.918172
648.034662	-144.001201
648.174772	-146.377811
648.314943	-150.680307
648.455174	-159.540157
648.595466	-165.023818
648.735819	-155.272996
648.876233	-151.393468
649.016707	-148.311614
649.157242	-145.423811
649.297838	-142.989980
649.438495	-141.173809
649.579213	-139.976242
649.719992	-139.338270
649.860832	-139.190383
650.001733	-139.458772
650.142695	-140.034509
650.283718	-140.697193
650.424803	-141.063444
650.565949	-140.822595
650.707156	-140.148602
650.848424	-139.542797
650.989754	-139.431475
651.131145	-140.126897
651.272597	-142.007090
651.414111	-145.929724
651.555687	-155.272899
651.697324	-151.794538
651.839022	-144.824791
651.980782	-141.876177
652.122604	-140.826501
652.264488	-141.186048
652.406433	-142.892475
652.548441	-145.794036
652.690510	-147.379121
652.832640	-144.873031
652.974833	-142.239969
653.117088	-140.838431
653.259405	-140.602001
653.401784	-141.477985
653.544224	-143.618092
653.686727	-147.641816
653.829293	-156.351374
653.971920	-159.047166
654.114609	-150.209706
654.257361	-147.128219
654.400175	-146.216910
654.543052	-146.900949
654.685991	-149.249584
654.828992	-152.435221
654.972056	-150.213416
655.115183	-145.895358
655.258372	-143.143267
655.401623	-141.786187
655.544937	-141.599794
655.688314	-142.538999
655.831754	-144.725353
655.975256	-148.517114
656.118822	-154.800173
656.262450	-166.142080
656.406141	-180.229390
656.549894	-163.257403
656.693711	-153.445658
656.837591	-147.927810
656.981534	-144.646818
657.125540	-142.872137
657.269610	-142.304828
657.413742	-142.850924
657.557938	-144.574843
657.702196	-147.771417
657.846519	-153.302918
657.990904	-161.608611
658.135353	-156.702160
658.279866	-152.708762
658.424441	-150.846383
658.569081	-149.884367
658.713784	-149.391988
658.858550	-149.282887
659.003381	-149.526539
659.148274	-149.948449
659.293232	-150.158219
659.438253	-149.749288
659.583339	-148.695144
659.728488	-147.332998
659.873701	-146.020706
660.018978	-144.986806
660.164318	-144.321407
660.309723	-143.955393
660.455192	-143.619237
660.600725	-142.940500
660.746323	-141.815098
660.891984	-140.548242
661.037710	-139.507040
661.183500	-138.899194
661.329354	-138.800969
661.475272	-139.217114
661.621255	-140.092892
661.767303	-141.264685
661.913415	-142.366013
662.059591	-142.901127
662.205833	-142.740912
662.352138	-142.311652
662.498509	-142.097036
662.644944	-142.392770
662.791443	-143.405524
662.938008	-145.410365
663.084638	-148.994770
663.231332	-155.334252
663.378091	-154.839120
663.524915	-148.764018
663.671804	-145.478430
663.818759	-143.870969
663.965778	-143.500833
664.112863	-144.308694
664.260012	-146.523285
664.407227	-150.892496
664.554507	-158.806584
664.701853	-155.710642
664.849264	-151.261112
664.996740	-150.091324
665.144282	-151.178688
665.291889	-153.580016
665.439561	-151.918619
665.587300	-147.158441
665.735103	-143.521134
665.882973	-141.083368
666.030908	-139.623139
666.178909	-139.078991
666.326976	-139.518329
666.475109	-141.075882
666.623307	-143.465994
666.771571	-143.798180
666.919902	-140.820028
667.068298	-138.143783
667.216761	-136.693291
667.365289	-136.438533
667.513884	-137.400970
667.662545	-139.839559
667.811272	-144.558751
667.960065	-151.652345
668.108925	-146.757090
668.257851	-142.674387
668.406843	-141.196591
668.555902	-141.476481
668.705027	-143.399179
668.854219	-147.021315
669.003478	-148.689560
669.152803	-144.773982
669.302195	-141.641711
669.451653	-140.092428
669.601179	-139.884717
669.750771	-141.060350
669.900430	-144.201324
670.050156	-152.295499
670.199949	-154.509737
670.349808	-144.322965
670.499735	-140.338686
670.649729	-138.402010
670.799790	-137.688720
670.949918	-137.865567
671.100114	-138.640769
671.250377	-139.470167
671.400707	-139.512294
671.551104	-138.496738
671.701569	-137.053323
671.852101	-135.730566
672.002700	-134.723521
672.153368	-134.077586
672.304102	-133.797331
672.454905	-133.853861
672.605775	-134.148691
672.756713	-134.479275
672.907718	-134.594496
673.058791	-134.396581
673.209933	-134.060275
673.361142	-133.877672
673.512419	-134.089589
673.663764	-134.873120
673.815177	-136.410583
673.966658	-138.998333
674.118207	-143.237773
674.269825	-149.003769
674.421510	-146.144724
674.573264	-141.501796
674.725086	-138.761683
674.876977	-137.138461
675.028936	-136.197803
675.180963	-135.718141
675.333059	-135.584476
675.485224	-135.736246
675.637457	-136.120378
675.789758	-136.637664
675.942129	-137.115162
676.094568	-137.395402
676.247075	-137.536790
676.399652	-137.866137
676.552298	-138.840609
676.705012	-141.054475
676.857795	-145.801043
677.010648	-157.462410
677.163569	-146.726779
677.316560	-141.155328
677.469619	-138.513420
677.622748	-137.293767
677.775946	-136.937119
677.929214	-137.102987
678.082551	-137.528239
678.235957	-138.006124
678.389432	-138.345228
678.542977	-138.312193
678.696592	-137.733375
678.850276	-136.683235
679.004030	-135.394468
679.157853	-134.053551
679.311746	-132.785884
679.465709	-131.721525
679.619742	-131.008293
679.773844	-130.788840
679.928017	-131.185249
680.082259	-132.280123
680.236571	-133.996700
680.390954	-135.633000
680.545406	-135.731304
680.699929	-134.507660
680.854522	-133.477898
681.009185	-133.302730
681.163918	-134.151354
681.318722	-136.118439
681.473596	-139.196708
681.628540	-142.250021
681.783555	-142.146214
681.938641	-140.267502
682.093797	-138.795032
682.249023	-137.819346
682.404321	-137.248631
682.559689	-137.275933
682.715128	-138.318415
682.870637	-141.120026
683.026218	-147.970560
683.181869	-151.628762
683.337591	-142.092104
683.493385	-138.231627
683.649249	-136.440295
683.805185	-135.724919
683.961191	-135.573355
684.117269	-135.732662
684.273418	-136.282873
684.429639	-137.600039
684.585930	-140.221308
684.742294	-143.926343
684.898728	-142.802794
685.055234	-138.750595
685.211812	-136.311260
685.368461	-135.443651
685.525182	-135.998781
685.681975	-138.210191
685.838839	-143.322436
685.995775	-158.802806
686.152783	-143.596259
686.309863	-138.194464
686.467014	-135.795090
686.624238	-135.063748
686.781534	-135.746121
686.938902	-137.932393
687.096342	-141.139897
687.253854	-140.621153
687.411438	-137.055953
687.569095	-134.688662
687.726824	-133.740988
687.884626	-134.004326
688.042499	-135.353050
688.200446	-137.589769
688.358465	-139.923862
688.516556	-140.864344
688.674720	-140.734700
688.832957	-141.170924
688.991266	-143.113036
689.149649	-147.576325
689.308104	-153.469393
689.466632	-147.049497
689.625233	-142.702664
689.783906	-140.700809
689.942653	-140.142414
690.101473	-140.505229
690.260367	-140.849400
690.419333	-139.742192
690.578372	-137.405274
690.737485	-135.107433
690.896672	-133.320402
691.055931	-132.018472
691.215264	-131.033201
691.374671	-130.175460
691.534151	-129.324187
691.693704	-128.485710
691.853332	-127.761216
692.013033	-127.262524
692.172807	-127.059590
692.332656	-127.170040
692.492578	-127.559941
692.652575	-128.137427
692.812645	-128.750370
692.972789	-129.236038
693.133007	-129.546748
693.293300	-129.828625
693.453666	-130.334215
693.614107	-131.273054
693.774622	-132.652347
693.935211	-133.907405
694.095875	-133.782051
694.256613	-132.245559
694.417426	-130.573063
694.578313	-129.406200
694.739274	-128.850809
694.900311	-128.860148
695.061421	-129.324626
695.222607	-130.042691
695.383868	-130.715309
695.545203	-131.146162
695.706613	-131.534940
695.868098	-132.420832
696.029658	-134.543902
696.191293	-139.485921
696.353003	-159.367290
696.514789	-139.049030
696.676649	-133.411695
696.838585	-130.780131
697.000596	-129.667235
697.162682	-129.544644
697.324844	-129.989358
697.487081	-130.426465
697.649394	-130.347622
697.811782	-129.885649
697.974246	-129.599344
698.136786	-129.907383
698.299401	-131.012840
698.462092	-132.894993
698.624859	-134.773080
698.787702	-134.746621
698.950621	-133.187633
699.113616	-131.985839
699.276686	-131.782888
699.439833	-132.669266
699.603056	-134.414057
699.766355	-135.495879
699.929731	-133.933371
700.093183	-131.548113
700.256711	-129.912396
700.420315	-129.262418
700.583996	-129.606827
700.747754	-131.035056
700.911588	-133.868127
701.075499	-139.179355
701.239486	-155.266128
701.403550	-143.793129
701.567691	-137.750527
701.731909	-134.839900
701.896203	-132.770352
702.060575	-130.840304
702.225024	-128.966625
702.389549	-127.314864
702.554152	-126.034008
702.718832	-125.192342
702.883589	-124.798446
703.048424	-124.821557
703.213335	-125.199105
703.378324	-125.843112
703.543391	-126.660997
703.708535	-127.595021
703.873757	-128.654195
704.039056	-129.898086
704.204433	-131.362795
704.369887	-132.948260
704.535420	-134.354599
704.701030	-135.360245
704.866718	-136.340329
705.032484	-138.237762
705.198328	-142.818851
705.364250	-166.218800
705.530250	-142.049750
705.696328	-136.016342
705.862485	-133.032185
706.028720	-131.491733
706.195033	-130.737558
706.361424	-130.219739
706.527894	-129.481117
706.694442	-128.463229
706.861069	-127.477468
707.027775	-126.830588
707.194559	-126.657953
707.361422	-126.921151
707.528363	-127.365864
707.695384	-127.500975
707.862483	-126.967511
708.029661	-126.015280
708.196918	-125.161009
708.364254	-124.734653
708.531670	-124.870645
708.699164	-125.576241
708.866738	-126.646585
709.034391	-127.390949
709.202123	-126.932021
709.369935	-125.580416
709.537826	-124.303221
709.705796	-123.579074
709.873847	-123.501100
710.041976	-123.967374
710.210186	-124.648078
710.378475	-124.972937
710.546844	-124.620682
710.715292	-123.969238
710.883821	-123.573009
711.052429	-123.746490
711.221118	-124.625563
711.389887	-126.228101
711.558735	-128.233944
711.727664	-129.443403
711.896673	-128.985304
712.065763	-128.171612
712.234932	-128.158306
712.404183	-129.149290
712.573513	-130.226409
712.742924	-129.185933
712.912416	-126.719072
713.081988	-124.779912
713.251641	-123.834846
713.421375	-123.882329
713.591190	-124.919417
713.761085	-127.054146
713.931061	-130.621576
714.101119	-136.526502
714.271257	-145.817128
714.441476	-143.183109
714.611777	-141.674909
714.782159	-141.882195
714.952622	-136.651686
715.123166	-131.618292
715.293792	-128.537583
715.464499	-126.994318
715.635288	-126.752228
715.806158	-127.790976
715.977110	-130.337212
716.148143	-135.137892
716.319259	-143.089506
716.490456	-139.187735
716.661735	-134.864747
716.833096	-133.086033
717.004538	-132.563454
717.176063	-132.515692
717.347670	-131.933167
717.519359	-129.987610
717.691130	-127.287381
717.862984	-124.799743
718.034920	-122.910953
718.206938	-121.683310
718.379039	-121.079838
718.551222	-121.028402
718.723488	-121.423467
718.895836	-122.106062
719.068267	-122.856559
719.240781	-123.469260
719.413377	-123.918753
719.586057	-124.427473
719.758819	-125.345255
719.931664	-127.058253
720.104593	-130.082258
720.277604	-135.460462
720.450699	-143.027672
720.623876	-137.748627
720.797137	-134.400423
720.970482	-133.622189
721.143910	-134.068041
721.317421	-134.233030
721.491016	-133.206908
721.664694	-131.974318
721.838456	-131.446400
722.012302	-131.839677
722.186231	-133.089068
722.360244	-134.926374
722.534342	-136.638529
722.708523	-137.048470
722.882788	-135.918038
