# 2022-03-21_14.41.22
# shape = sech2
# FWHM_ps = 0.1
# carrier_nm = 1542
# frep_MHz = 12126
# pow_mW = 8000
# GDD = 0.0
# propa_len = 0.14444444444444446
# untap_len = 0.01
# taper_len = 0.08444444444444445
# waist_len = 0.02
# uptap_len = 0.02
# untap_scale = 1.0
# waist_scale = 0.30000000000000004
# workingDir = NL_20110305_12 (Spirou)
# axis = slow
# window_ps = 10.0
# steps = 200
# points = 13000
# 
# wavelength [nm]	 power spectral density [dB]
1000.248639	-26.598105
1000.582480	-26.482724
1000.916545	-26.370352
1001.250832	-26.258202
1001.585343	-26.146382
1001.920077	-26.035035
1002.255035	-25.924382
1002.590218	-25.814661
1002.925624	-25.706045
1003.261255	-25.598646
1003.597111	-25.492555
1003.933192	-25.387879
1004.269497	-25.284753
1004.606029	-25.183234
1004.942785	-25.083225
1005.279768	-24.984612
1005.616977	-24.887342
1005.954412	-24.791359
1006.292074	-24.696530
1006.629962	-24.602671
1006.968077	-24.509629
1007.306420	-24.417305
1007.644990	-24.325623
1007.983787	-24.234537
1008.322813	-24.144009
1008.662067	-24.054020
1009.001549	-23.964607
1009.341259	-23.875860
1009.681199	-23.787882
1010.021367	-23.700773
1010.361765	-23.614642
1010.702392	-23.529650
1011.043250	-23.445998
1011.384337	-23.363799
1011.725654	-23.283102
1012.067202	-23.203945
1012.408980	-23.126330
1012.750989	-23.050193
1013.093230	-22.975380
1013.435702	-22.901703
1013.778405	-22.828971
1014.121341	-22.756958
1014.464508	-22.685405
1014.807908	-22.614022
1015.151540	-22.542496
1015.495405	-22.470582
1015.839503	-22.398076
1016.183835	-22.324819
1016.528400	-22.250781
1016.873198	-22.176051
1017.218231	-22.100818
1017.563498	-22.025383
1017.908999	-21.950139
1018.254735	-21.875509
1018.600707	-21.801914
1018.946913	-21.729774
1019.293354	-21.659477
1019.640032	-21.591343
1019.986945	-21.525622
1020.334094	-21.462488
1020.681480	-21.402027
1021.029102	-21.344221
1021.376961	-21.288906
1021.725058	-21.235793
1022.073391	-21.184528
1022.421962	-21.134653
1022.770772	-21.085635
1023.119819	-21.036959
1023.469104	-20.988216
1023.818628	-20.939090
1024.168391	-20.889348
1024.518393	-20.838914
1024.868634	-20.787838
1025.219115	-20.736257
1025.569836	-20.684480
1025.920796	-20.632965
1026.271997	-20.582218
1026.623438	-20.532742
1026.975121	-20.485080
1027.327044	-20.439746
1027.679208	-20.397069
1028.031614	-20.357223
1028.384262	-20.320282
1028.737152	-20.286178
1029.090284	-20.254671
1029.443659	-20.225374
1029.797276	-20.197758
1030.151137	-20.171222
1030.505240	-20.145204
1030.859587	-20.119180
1031.214178	-20.092630
1031.569013	-20.065197
1031.924093	-20.036785
1032.279417	-20.007482
1032.634985	-19.977509
1032.990799	-19.947261
1033.346858	-19.917190
1033.703162	-19.887730
1034.059712	-19.859323
1034.416509	-19.832356
1034.773551	-19.807093
1035.130841	-19.783688
1035.488377	-19.762109
1035.846160	-19.742110
1036.204190	-19.723305
1036.562468	-19.705224
1036.920994	-19.687261
1037.279768	-19.668732
1037.638790	-19.649034
1037.998061	-19.627710
1038.357581	-19.604502
1038.717350	-19.579426
1039.077368	-19.552735
1039.437636	-19.524836
1039.798154	-19.496277
1040.158922	-19.467729
1040.519940	-19.439935
1040.881209	-19.413639
1041.242729	-19.389526
1041.604501	-19.368146
1041.966524	-19.349802
1042.328798	-19.334513
1042.691325	-19.322071
1043.054103	-19.312067
1043.417135	-19.303873
1043.780419	-19.296743
1044.143956	-19.289942
1044.507746	-19.282791
1044.871791	-19.274789
1045.236088	-19.265734
1045.600641	-19.255674
1045.965447	-19.244903
1046.330508	-19.233976
1046.695824	-19.223581
1047.061395	-19.214478
1047.427222	-19.207483
1047.793304	-19.203300
1048.159642	-19.202347
1048.526237	-19.204771
1048.893088	-19.210405
1049.260196	-19.218723
1049.627561	-19.228896
1049.995183	-19.239876
1050.363063	-19.250521
1050.731201	-19.259793
1051.099597	-19.266870
1051.468251	-19.271213
1051.837164	-19.272669
1052.206336	-19.271472
1052.575767	-19.268139
1052.945458	-19.263385
1053.315409	-19.257960
1053.685619	-19.252541
1054.056090	-19.247694
1054.426821	-19.243890
1054.797814	-19.241460
1055.169067	-19.240521
1055.540582	-19.240930
1055.912359	-19.242316
1056.284398	-19.244104
1056.656698	-19.245546
1057.029262	-19.245842
1057.402088	-19.244265
1057.775177	-19.240269
1058.148530	-19.233595
1058.522146	-19.224377
1058.896027	-19.213160
1059.270171	-19.200796
1059.644580	-19.188302
1060.019254	-19.176775
1060.394193	-19.167265
1060.769397	-19.160641
1061.144867	-19.157479
1061.520602	-19.157930
1061.896604	-19.161677
1062.272872	-19.168014
1062.649407	-19.175952
1063.026210	-19.184384
1063.403279	-19.192301
1063.780616	-19.198963
1064.158221	-19.204062
1064.536094	-19.207772
1064.914235	-19.210651
1065.292645	-19.213523
1065.671325	-19.217234
1066.050273	-19.222513
1066.429491	-19.229931
1066.808979	-19.239759
1067.188738	-19.251937
1067.568766	-19.266151
1067.949066	-19.281824
1068.329636	-19.298116
1068.710478	-19.314042
1069.091592	-19.328599
1069.472977	-19.340867
1069.854635	-19.350219
1070.236565	-19.356454
1070.618768	-19.359788
1071.001243	-19.360764
1071.383993	-19.360122
1071.767016	-19.358617
1072.150313	-19.356904
1072.533884	-19.355445
1072.917730	-19.354487
1073.301850	-19.354012
1073.686246	-19.353744
1074.070917	-19.353245
1074.455864	-19.351927
1074.841087	-19.349049
1075.226586	-19.343877
1075.612362	-19.335863
1075.998415	-19.324863
1076.384745	-19.311239
1076.771353	-19.295812
1077.158238	-19.279647
1077.545401	-19.263851
1077.932843	-19.249495
1078.320564	-19.237378
1078.708564	-19.227863
1079.096842	-19.221027
1079.485401	-19.216732
1079.874240	-19.214637
1080.263358	-19.214221
1080.652757	-19.214896
1081.042438	-19.216047
1081.432399	-19.217083
1081.822641	-19.217660
1082.213166	-19.217773
1082.603972	-19.217691
1082.995061	-19.217963
1083.386433	-19.219330
1083.778087	-19.222447
1084.170025	-19.227748
1084.562246	-19.235432
1084.954751	-19.245455
1085.347541	-19.257593
1085.740615	-19.271602
1086.133973	-19.287172
1086.527617	-19.303804
1086.921546	-19.320801
1087.315761	-19.337306
1087.710262	-19.352275
1088.105050	-19.364596
1088.500124	-19.373357
1088.895485	-19.378134
1089.291134	-19.379140
1089.687070	-19.377064
1090.083294	-19.372774
1090.479806	-19.367020
1090.876607	-19.360231
1091.273696	-19.352351
1091.671075	-19.342946
1092.068744	-19.331594
1092.466702	-19.318410
1092.864950	-19.304297
1093.263489	-19.290816
1093.662319	-19.279778
1094.061440	-19.272603
1094.460852	-19.269582
1094.860555	-19.269538
1095.260551	-19.269983
1095.660840	-19.267660
1096.061421	-19.259646
1096.462295	-19.244415
1096.863462	-19.222288
1097.264923	-19.195185
1097.666678	-19.165925
1098.068727	-19.137172
1098.471071	-19.110699
1098.873710	-19.087262
1099.276644	-19.067047
1099.679874	-19.050451
1100.083400	-19.038693
1100.487222	-19.033852
1100.891340	-19.038138
1101.295756	-19.052943
1101.700468	-19.077866
1102.105478	-19.110297
1102.510787	-19.146058
1102.916393	-19.180797
1103.322298	-19.211418
1103.728502	-19.237011
1104.135005	-19.258578
1104.541807	-19.277779
1104.948909	-19.295342
1105.356312	-19.310108
1105.764015	-19.319358
1106.172019	-19.320287
1106.580324	-19.312160
1106.988931	-19.297434
1107.397840	-19.281504
1107.807051	-19.270764
1108.216564	-19.270110
1108.626380	-19.281080
1109.036500	-19.301480
1109.446923	-19.326772
1109.857649	-19.352643
1110.268680	-19.377330
1110.680016	-19.402111
1111.091657	-19.429944
1111.503602	-19.462876
1111.915854	-19.499381
1112.328411	-19.533480
1112.741275	-19.556582
1113.154445	-19.561275
1113.567922	-19.545270
1113.981706	-19.512788
1114.395798	-19.472613
1114.810198	-19.434008
1115.224906	-19.402394
1115.639923	-19.377025
1116.055249	-19.352222
1116.470884	-19.321368
1116.886829	-19.281587
1117.303084	-19.236679
1117.719650	-19.196315
1118.136526	-19.172013
1118.553713	-19.172366
1118.971212	-19.199097
1119.389022	-19.245961
1119.807145	-19.301209
1120.225580	-19.352328
1120.644328	-19.391217
1121.063389	-19.417136
1121.482763	-19.435757
1121.902452	-19.455115
1122.322454	-19.480840
1122.742771	-19.512734
1123.163404	-19.544429
1123.584351	-19.566403
1124.005614	-19.570037
1124.427193	-19.551362
1124.849089	-19.512537
1125.271301	-19.460678
1125.693830	-19.404946
1126.116677	-19.353630
1126.539842	-19.312246
1126.963324	-19.283022
1127.387126	-19.265240
1127.811246	-19.255987
1128.235685	-19.251317
1128.660444	-19.247548
1129.085522	-19.242749
1129.510922	-19.237942
1129.936641	-19.237065
1130.362682	-19.245703
1130.789044	-19.268605
1131.215728	-19.306905
1131.642734	-19.356385
1132.070063	-19.407916
1132.497714	-19.450339
1132.925689	-19.474859
1133.353987	-19.479092
1133.782610	-19.468237
1134.211556	-19.452553
1134.640827	-19.442374
1135.070424	-19.443217
1135.500345	-19.453392
1135.930593	-19.464872
1136.361166	-19.467614
1136.792067	-19.454961
1137.223294	-19.427674
1137.654848	-19.394022
1138.086730	-19.366118
1138.518940	-19.354613
1138.951479	-19.364518
1139.384346	-19.393349
1139.817543	-19.432630
1140.251069	-19.471968
1140.684925	-19.503858
1141.119111	-19.527088
1141.553628	-19.546907
1141.988475	-19.571961
1142.423655	-19.609544
1142.859166	-19.661491
1143.295009	-19.722967
1143.731185	-19.784260
1144.167694	-19.834989
1144.604536	-19.868576
1145.041711	-19.884808
1145.479221	-19.888988
1145.917065	-19.888373
1146.355245	-19.887775
1146.793759	-19.887227
1147.232609	-19.882228
1147.671795	-19.866677
1148.111317	-19.836594
1148.551177	-19.792637
1148.991373	-19.739715
1149.431907	-19.684351
1149.872779	-19.631242
1150.313989	-19.581409
1150.755538	-19.532675
1151.197426	-19.482247
1151.639653	-19.429554
1152.082220	-19.377290
1152.525128	-19.330392
1152.968376	-19.293132
1153.411966	-19.266561
1153.855897	-19.247917
1154.300169	-19.232643
1154.744784	-19.217624
1155.189742	-19.203400
1155.635042	-19.194155
1156.080687	-19.195201
1156.526674	-19.209453
1156.973007	-19.235202
1157.419683	-19.266473
1157.866705	-19.296095
1158.314072	-19.319646
1158.761786	-19.337749
1159.209845	-19.355529
1159.658251	-19.379080
1160.107004	-19.411135
1160.556104	-19.448765
1161.005553	-19.484592
1161.455349	-19.510531
1161.905494	-19.522263
1162.355989	-19.521587
1162.806832	-19.514969
1163.258026	-19.509193
1163.709570	-19.507349
1164.161464	-19.507197
1164.613710	-19.502738
1165.066307	-19.488104
1165.519256	-19.461228
1165.972558	-19.425246
1166.426212	-19.386572
1166.880219	-19.351335
1167.334580	-19.322348
1167.789295	-19.298374
1168.244364	-19.275576
1168.699788	-19.250299
1169.155567	-19.221437
1169.611702	-19.191015
1170.068193	-19.162956
1170.525041	-19.141085
1170.982245	-19.127456
1171.439807	-19.121935
1171.897726	-19.122609
1172.356004	-19.127249
1172.814640	-19.134327
1173.273635	-19.143557
1173.732989	-19.155648
1174.192703	-19.171846
1174.652778	-19.193357
1175.113213	-19.220807
1175.574009	-19.253980
1176.035167	-19.291591
1176.496687	-19.331331
1176.958569	-19.370754
1177.420814	-19.407873
1177.883422	-19.441961
1178.346394	-19.473614
1178.809730	-19.504542
1179.273430	-19.535952
1179.737496	-19.567485
1180.201927	-19.596533
1180.666723	-19.619145
1181.131886	-19.631789
1181.597416	-19.633356
1182.063312	-19.625491
1182.529576	-19.611667
1182.996209	-19.595148
1183.463209	-19.576829
1183.930579	-19.554818
1184.398317	-19.525571
1184.866426	-19.486307
1185.334904	-19.437104
1185.803754	-19.381335
1186.272974	-19.323837
1186.742566	-19.268300
1187.212529	-19.215449
1187.682865	-19.162965
1188.153574	-19.107268
1188.624656	-19.046042
1189.096112	-18.980122
1189.567942	-18.913013
1190.040147	-18.849028
1190.512726	-18.790591
1190.985681	-18.736772
1191.459012	-18.684071
1191.932720	-18.628707
1192.406804	-18.568992
1192.881265	-18.506328
1193.356104	-18.444345
1193.831322	-18.386412
1194.306918	-18.333513
1194.782893	-18.283539
1195.259248	-18.232560
1195.735982	-18.177337
1196.213097	-18.117361
1196.690593	-18.054916
1197.168471	-17.993615
1197.646730	-17.935823
1198.125371	-17.881157
1198.604395	-17.826878
1199.083803	-17.769701
1199.563594	-17.707884
1200.043769	-17.642630
1200.524329	-17.577038
1201.005273	-17.514130
1201.486604	-17.454748
1201.968320	-17.397196
1202.450422	-17.338181
1202.932912	-17.275143
1203.415789	-17.207812
1203.899054	-17.138295
1204.382707	-17.069458
1204.866748	-17.002921
1205.351179	-16.937849
1205.836000	-16.871676
1206.321211	-16.801737
1206.806812	-16.727028
1207.292805	-16.648922
1207.779189	-16.570153
1208.265965	-16.492861
1208.753134	-16.417304
1209.240696	-16.341787
1209.728651	-16.264102
1210.217000	-16.183200
1210.705744	-16.099972
1211.194883	-16.016595
1211.684417	-15.935191
1212.174347	-15.856514
1212.664673	-15.779529
1213.155396	-15.702519
1213.646516	-15.624433
1214.138034	-15.545700
1214.629951	-15.467991
1215.122266	-15.393012
1215.614980	-15.321472
1216.108095	-15.252657
1216.601609	-15.185158
1217.095524	-15.117955
1217.589841	-15.051243
1218.084559	-14.986171
1218.579679	-14.923992
1219.075202	-14.864996
1219.571128	-14.808432
1220.067458	-14.752910
1220.564191	-14.697545
1221.061330	-14.642415
1221.558874	-14.588390
1222.056823	-14.536363
1222.555178	-14.486488
1223.053940	-14.437989
1223.553109	-14.389758
1224.052686	-14.341081
1224.552671	-14.292180
1225.053065	-14.243993
1225.553867	-14.197381
1226.055079	-14.152430
1226.556702	-14.108405
1227.058735	-14.064408
1227.561179	-14.020037
1228.064035	-13.975646
1228.567303	-13.932173
1229.070983	-13.890293
1229.575077	-13.849947
1230.079585	-13.810342
1230.584506	-13.770576
1231.089842	-13.730362
1231.595594	-13.690183
1232.101761	-13.650865
1232.608345	-13.612991
1233.115345	-13.576419
1233.622762	-13.540329
1234.130597	-13.503947
1234.638851	-13.467240
1235.147523	-13.430962
1235.656615	-13.395964
1236.166126	-13.362653
1236.676058	-13.330667
1237.186411	-13.299214
1237.697185	-13.267675
1238.208381	-13.236212
1238.719999	-13.205652
1239.232040	-13.176814
1239.744505	-13.149693
1240.257394	-13.123489
1240.770708	-13.097319
1241.284446	-13.070816
1241.798610	-13.044454
1242.313201	-13.019088
1242.828218	-12.995216
1243.343662	-12.972507
1243.859534	-12.949991
1244.375834	-12.926992
1244.892563	-12.903740
1245.409721	-12.881148
1245.927309	-12.860051
1246.445327	-12.840505
1246.963777	-12.821824
1247.482657	-12.803239
1248.001970	-12.784632
1248.521716	-12.766720
1249.041894	-12.750507
1249.562506	-12.736229
1250.083553	-12.723280
1250.605034	-12.710692
1251.126950	-12.698007
1251.649302	-12.685679
1252.172091	-12.674404
1252.695316	-12.664542
1253.218979	-12.655503
1253.743079	-12.646272
1254.267619	-12.636259
1254.792597	-12.625770
1255.318015	-12.615582
1255.843874	-12.606089
1256.370173	-12.596891
1256.896913	-12.587170
1257.424095	-12.576503
1257.951720	-12.565328
1258.479787	-12.554553
1259.008298	-12.544699
1259.537254	-12.535550
1260.066654	-12.526327
1260.596499	-12.516783
1261.126790	-12.507446
1261.657527	-12.499135
1262.188711	-12.492326
1262.720342	-12.486592
1263.252422	-12.481207
1263.784950	-12.475781
1264.317928	-12.470706
1264.851355	-12.466694
1265.385232	-12.463940
1265.919560	-12.461954
1266.454340	-12.459908
1266.989572	-12.457469
1267.525256	-12.454930
1268.061394	-12.452867
1268.597985	-12.451422
1269.135031	-12.450147
1269.672531	-12.448463
1270.210487	-12.446240
1270.748899	-12.443823
1271.287768	-12.441626
1271.827094	-12.439777
1272.366877	-12.438086
1272.907119	-12.436322
1273.447820	-12.434474
1273.988981	-12.432779
1274.530601	-12.431382
1275.072683	-12.430261
1275.615226	-12.429469
1276.158230	-12.429027
1276.701697	-12.428908
1277.245627	-12.428959
1277.790021	-12.428977
1278.334879	-12.428946
1278.880202	-12.429042
1279.425991	-12.429450
1279.972245	-12.429962
1280.518966	-12.430097
1281.066155	-12.429519
1281.613811	-12.428456
1282.161936	-12.427398
1282.710529	-12.426501
1283.259593	-12.425220
1283.809126	-12.422893
1284.359131	-12.419514
1284.909607	-12.415807
1285.460555	-12.412452
1286.011976	-12.409276
1286.563870	-12.405339
1287.116237	-12.400031
1287.669080	-12.393964
1288.222397	-12.388416
1288.776191	-12.383782
1289.330460	-12.379102
1289.885207	-12.373075
1290.440431	-12.365716
1290.996133	-12.358550
1291.552314	-12.352830
1292.108975	-12.348005
1292.666115	-12.342246
1293.223737	-12.334665
1293.781839	-12.326483
1294.340424	-12.319762
1294.899491	-12.314913
1295.459041	-12.310008
1296.019075	-12.303133
1296.579593	-12.294831
1297.140597	-12.287640
1297.702086	-12.283052
1298.264061	-12.279673
1298.826524	-12.274764
1299.389474	-12.267758
1299.952912	-12.261145
1300.516839	-12.257531
1301.081255	-12.256352
1301.646162	-12.254457
1302.211559	-12.250079
1302.777448	-12.245156
1303.343829	-12.243017
1303.910702	-12.244087
1304.478069	-12.245255
1305.045930	-12.243706
1305.614285	-12.240700
1306.183136	-12.239998
1306.752483	-12.242972
1307.322326	-12.246620
1307.892666	-12.247427
1308.463504	-12.245954
1309.034841	-12.246189
1309.606677	-12.250372
1310.179012	-12.255774
1310.751849	-12.258172
1311.325186	-12.257554
1311.899025	-12.258136
1312.473366	-12.262772
1313.048211	-12.268925
1313.623559	-12.271762
1314.199412	-12.270685
1314.775770	-12.270184
1315.352634	-12.273707
1315.930004	-12.278733
1316.507881	-12.279864
1317.086266	-12.276032
1317.665159	-12.271987
1318.244562	-12.271790
1318.824474	-12.272975
1319.404897	-12.269608
1319.985831	-12.260327
1320.567276	-12.250274
1321.149234	-12.243913
1321.731706	-12.238740
1322.314691	-12.228585
1322.898190	-12.212124
1323.482205	-12.194783
1324.066736	-12.181159
1324.651783	-12.168661
1325.237347	-12.151114
1325.823430	-12.127534
1326.410031	-12.103617
1326.997151	-12.083751
1327.584791	-12.064930
1328.172952	-12.041254
1328.761634	-12.012492
1329.350839	-11.984608
1329.940566	-11.961227
1330.530817	-11.938740
1331.121592	-11.911847
1331.712891	-11.881476
1332.304716	-11.853571
1332.897068	-11.830585
1333.489946	-11.808274
1334.083352	-11.782302
1334.677287	-11.754864
1335.271750	-11.731418
1335.866744	-11.712860
1336.462268	-11.694538
1337.058323	-11.673477
1337.654910	-11.652906
1338.252029	-11.637338
1338.849682	-11.625843
1339.447869	-11.613801
1340.046591	-11.600005
1340.645848	-11.588307
1341.245641	-11.581462
1341.845972	-11.576907
1342.446840	-11.570828
1343.048246	-11.563958
1343.650191	-11.560005
1344.252677	-11.559596
1344.855702	-11.559229
1345.459269	-11.556840
1346.063379	-11.554683
1346.668030	-11.555363
1347.273226	-11.557364
1347.878965	-11.557474
1348.485250	-11.555724
1349.092080	-11.554988
1349.699456	-11.555991
1350.307380	-11.555993
1350.915851	-11.553272
1351.524871	-11.549758
1352.134441	-11.547669
1352.744560	-11.545664
1353.355231	-11.541243
1353.966453	-11.534873
1354.578227	-11.529113
1355.190555	-11.524289
1355.803436	-11.518047
1356.416872	-11.509610
1357.030863	-11.501238
1357.645411	-11.494499
1358.260515	-11.487655
1358.876177	-11.479105
1359.492397	-11.470491
1360.109176	-11.464111
1360.726516	-11.459129
1361.344416	-11.453165
1361.962877	-11.446927
1362.581901	-11.443292
1363.201487	-11.442499
1363.821637	-11.441669
1364.442352	-11.439970
1365.063632	-11.440446
1365.685478	-11.444776
1366.307891	-11.450112
1366.930871	-11.453744
1367.554420	-11.457896
1368.178538	-11.465881
1368.803226	-11.476024
1369.428485	-11.483996
1370.054315	-11.489991
1370.680717	-11.498148
1371.307693	-11.508990
1371.935242	-11.517894
1372.563366	-11.522535
1373.192065	-11.526501
1373.821341	-11.532698
1374.451193	-11.537821
1375.081623	-11.537761
1375.712632	-11.534551
1376.344221	-11.532606
1376.976389	-11.530938
1377.609139	-11.525004
1378.242470	-11.514783
1378.876384	-11.504866
1379.510881	-11.496485
1380.145963	-11.485853
1380.781629	-11.471494
1381.417881	-11.457306
1382.054720	-11.446042
1382.692147	-11.435068
1383.330161	-11.421876
1383.968765	-11.409040
1384.607959	-11.399753
1385.247743	-11.392405
1385.888119	-11.384134
1386.529087	-11.376342
1387.170648	-11.372133
1387.812804	-11.370547
1388.455554	-11.368550
1389.098899	-11.366548
1389.742842	-11.367136
1390.387381	-11.369628
1391.032519	-11.370952
1391.678256	-11.370884
1392.324592	-11.371577
1392.971529	-11.372608
1393.619068	-11.371153
1394.267208	-11.366936
1394.915952	-11.362313
