# 2022-03-21_17.41.02
# shape = sech2
# FWHM_ps = 0.1
# carrier_nm = 1542
# frep_MHz = 12126
# pow_mW = 8000
# GDD = 0.0
# propa_len = 0.13666666666666666
# untap_len = 0.01
# taper_len = 0.07666666666666666
# waist_len = 0.02
# uptap_len = 0.02
# untap_scale = 1.0
# waist_scale = 0.2944444444444444
# workingDir = NL_20110305_12 (Spirou)
# axis = slow
# window_ps = 10.0
# steps = 200
# points = 21700
# 
# wavelength [nm]	 power spectral density [dB]
600.043425	-88.751958
600.163550	-88.712364
600.283723	-88.686951
600.403943	-88.675744
600.524212	-88.679936
600.644529	-88.699967
600.764895	-88.735613
600.885308	-88.786118
601.005770	-88.850160
601.126280	-88.925923
601.246839	-89.011116
601.367446	-89.103157
601.488101	-89.199230
601.608804	-89.296395
601.729557	-89.391901
601.850357	-89.483264
601.971206	-89.568392
602.092104	-89.645864
602.213050	-89.714949
602.334045	-89.775505
602.455089	-89.827950
602.576181	-89.873185
602.697322	-89.912318
602.818511	-89.946554
602.939749	-89.977046
603.061036	-90.004757
603.182372	-90.030552
603.303757	-90.055222
603.425191	-90.079607
603.546673	-90.104729
603.668204	-90.131748
603.789785	-90.162162
603.911414	-90.197579
604.033092	-90.239740
604.154820	-90.290384
604.276596	-90.351096
604.398422	-90.423135
604.520297	-90.507312
604.642220	-90.604080
604.764193	-90.713465
604.886216	-90.835134
605.008287	-90.968525
605.130408	-91.113119
605.252578	-91.268398
605.374798	-91.434116
605.497066	-91.610320
605.619385	-91.797362
605.741752	-91.995839
605.864169	-92.206723
605.986636	-92.431017
606.109152	-92.669904
606.231718	-92.924678
606.354333	-93.196584
606.476998	-93.486891
606.599712	-93.797054
606.722476	-94.128503
606.845290	-94.482584
606.968154	-94.860708
607.091067	-95.264057
607.214030	-95.693297
607.337043	-96.148353
607.460106	-96.627785
607.583219	-97.128510
607.706381	-97.645194
607.829594	-98.169834
607.952856	-98.691935
608.076169	-99.198336
608.199531	-99.674340
608.322944	-100.105505
608.446407	-100.479441
608.569920	-100.787666
608.693483	-101.027261
608.817096	-101.200331
608.940759	-101.312587
609.064473	-101.371646
609.188237	-101.385533
609.312051	-101.360864
609.435916	-101.303456
609.559831	-101.218403
609.683796	-101.110946
609.807812	-100.986589
609.931878	-100.851151
610.055995	-100.711095
610.180162	-100.572774
610.304380	-100.441647
610.428648	-100.322061
610.552967	-100.216289
610.677337	-100.124514
610.801757	-100.044342
610.926228	-99.970475
611.050750	-99.895104
611.175323	-99.807856
611.299946	-99.696764
611.424620	-99.549598
611.549345	-99.355737
611.674121	-99.108449
611.798948	-98.806779
611.923826	-98.456345
612.048755	-98.068338
612.173734	-97.657817
612.298765	-97.241639
612.423847	-96.836262
612.548980	-96.456570
612.674165	-96.115198
612.799400	-95.822166
612.924687	-95.585175
613.050025	-95.409870
613.175414	-95.299969
613.300854	-95.257478
613.426346	-95.282763
613.551889	-95.374453
613.677484	-95.529453
613.803130	-95.742852
613.928827	-96.007547
614.054576	-96.314225
614.180377	-96.651422
614.306229	-97.006145
614.432132	-97.364502
614.558087	-97.713098
614.684094	-98.040763
614.810153	-98.340820
614.936263	-98.611818
615.062425	-98.858331
615.188639	-99.089726
615.314904	-99.318562
615.441222	-99.559080
615.567591	-99.825690
615.694012	-100.132122
615.820486	-100.490869
615.947011	-100.913609
616.073588	-101.412144
616.200217	-101.998634
616.326898	-102.686662
616.453632	-103.492880
616.580417	-104.436892
616.707255	-105.543165
616.834144	-106.840530
616.961086	-108.358714
617.088081	-110.110867
617.215127	-112.029163
617.342226	-113.786650
617.469378	-114.626370
617.596581	-114.041617
617.723837	-112.605005
617.851146	-111.049975
617.978507	-109.676783
618.105920	-108.544973
618.233386	-107.639928
618.360905	-106.931707
618.488476	-106.389835
618.616100	-105.986706
618.743777	-105.698271
618.871506	-105.501108
618.999288	-105.371847
619.127123	-105.286284
619.255011	-105.218739
619.382951	-105.142573
619.510945	-105.031865
619.638991	-104.863626
619.767090	-104.621729
619.895243	-104.298701
620.023448	-103.897825
620.151706	-103.430746
620.280017	-102.915325
620.408382	-102.371430
620.536799	-101.818028
620.665270	-101.271306
620.793794	-100.743343
620.922371	-100.242572
621.051002	-99.774033
621.179686	-99.340222
621.308423	-98.941329
621.437213	-98.576078
621.566057	-98.242526
621.694954	-97.938247
621.823905	-97.660598
621.952909	-97.407292
622.081967	-97.175775
622.211079	-96.962970
622.340244	-96.765102
622.469462	-96.576588
622.598735	-96.389321
622.728061	-96.192229
622.857441	-95.970999
622.986874	-95.709533
623.116361	-95.391686
623.245903	-95.005056
623.375498	-94.543503
623.505147	-94.009585
623.634850	-93.414290
623.764606	-92.774646
623.894417	-92.110527
624.024282	-91.441607
624.154201	-90.785123
624.284174	-90.154891
624.414202	-89.561062
624.544283	-89.010279
624.674419	-88.506325
624.804609	-88.050621
624.934853	-87.642485
625.065151	-87.279727
625.195504	-86.958833
625.325911	-86.675321
625.456373	-86.423915
625.586889	-86.198836
625.717460	-85.994042
625.848085	-85.803659
625.978764	-85.622227
626.109498	-85.445096
626.240287	-85.268786
626.371131	-85.090989
626.502029	-84.910711
626.632982	-84.728071
626.763989	-84.544154
626.895052	-84.360734
627.026169	-84.179910
627.157341	-84.003901
627.288568	-83.834744
627.419850	-83.674332
627.551187	-83.524232
627.682579	-83.385762
627.814026	-83.260026
627.945528	-83.148033
628.077085	-83.050819
628.208697	-82.969456
628.340364	-82.905020
628.472087	-82.858649
628.603865	-82.831465
628.735698	-82.824505
628.867586	-82.838718
628.999530	-82.874790
629.131529	-82.933020
629.263584	-83.013231
629.395694	-83.114683
629.527859	-83.235979
629.660080	-83.375089
629.792357	-83.529316
629.924689	-83.695455
630.057077	-83.869895
630.189520	-84.048740
630.322019	-84.228012
630.454574	-84.403850
630.587184	-84.572811
630.719851	-84.731927
630.852573	-84.878875
630.985351	-85.012174
631.118185	-85.130930
631.251075	-85.234969
631.384021	-85.324598
631.517023	-85.400692
631.650081	-85.464650
631.783195	-85.518600
631.916365	-85.565347
632.049592	-85.608452
632.182874	-85.652216
632.316213	-85.701642
632.449608	-85.762413
632.583059	-85.840770
632.716567	-85.943393
632.850131	-86.077296
632.983751	-86.249643
633.117428	-86.467678
633.251161	-86.738489
633.384951	-87.069053
633.518797	-87.465714
633.652700	-87.933859
633.786660	-88.477007
633.920676	-89.095175
634.054749	-89.781853
634.188879	-90.519263
634.323065	-91.271090
634.457308	-91.974475
634.591608	-92.537981
634.725965	-92.858904
634.860379	-92.865756
634.994850	-92.560281
635.129377	-92.014400
635.263962	-91.326255
635.398604	-90.579538
635.533303	-89.829390
635.668058	-89.105433
635.802872	-88.420337
635.937742	-87.776867
636.072669	-87.172835
636.207654	-86.603944
636.342696	-86.065567
636.477796	-85.553678
636.612953	-85.065219
636.748167	-84.598194
636.883439	-84.151596
637.018768	-83.725084
637.154155	-83.318673
637.289599	-82.932488
637.425101	-82.566469
637.560660	-82.220269
637.696277	-81.893141
637.831952	-81.583851
637.967685	-81.290752
638.103475	-81.011816
638.239324	-80.744883
638.375230	-80.487767
638.511194	-80.238448
638.647215	-79.995269
638.783295	-79.757044
638.919433	-79.523144
639.055629	-79.293578
639.191883	-79.068944
639.328195	-78.850276
639.464565	-78.638890
639.600994	-78.436185
639.737481	-78.243555
639.874025	-78.062187
640.010629	-77.892965
640.147290	-77.736321
640.284010	-77.592271
640.420789	-77.460348
640.557625	-77.339720
640.694521	-77.229139
640.831474	-77.127070
640.968487	-77.031788
641.105558	-76.941494
641.242687	-76.854423
641.379876	-76.769005
641.517123	-76.683967
641.654429	-76.598477
641.791793	-76.512158
641.929216	-76.425175
642.066699	-76.338188
642.204240	-76.252280
642.341840	-76.168864
642.479499	-76.089553
642.617217	-76.016029
642.754994	-75.949922
642.892830	-75.892621
643.030726	-75.845291
643.168680	-75.808755
643.306694	-75.783492
643.444767	-75.769621
643.582899	-75.766980
643.721091	-75.775135
643.859342	-75.793429
643.997652	-75.821052
644.136022	-75.857094
644.274451	-75.900613
644.412940	-75.950668
644.551488	-76.006481
644.690096	-76.067443
644.828763	-76.133210
644.967490	-76.203669
645.106277	-76.278939
645.245124	-76.359335
645.384030	-76.445245
645.522997	-76.537040
645.662023	-76.634956
645.801109	-76.739015
645.940255	-76.848943
646.079460	-76.964099
646.218726	-77.083441
646.358052	-77.205545
646.497438	-77.328642
646.636884	-77.450723
646.776391	-77.569624
646.915957	-77.683115
647.055584	-77.789008
647.195271	-77.885299
647.335019	-77.970220
647.474826	-78.042267
647.614695	-78.100262
647.754623	-78.143254
647.894612	-78.170617
648.034662	-78.181944
648.174772	-78.177109
648.314943	-78.156157
648.455174	-78.119320
648.595466	-78.067067
648.735819	-78.000005
648.876233	-77.918824
649.016707	-77.824269
649.157242	-77.717103
649.297838	-77.598115
649.438495	-77.468033
649.579213	-77.327560
649.719992	-77.177384
649.860832	-77.018185
650.001733	-76.850669
650.142695	-76.675588
650.283718	-76.493811
650.424803	-76.306297
650.565949	-76.114195
650.707156	-75.918807
650.848424	-75.721685
650.989754	-75.524599
651.131145	-75.329541
651.272597	-75.138682
651.414111	-74.954308
651.555687	-74.778768
651.697324	-74.614404
651.839022	-74.463452
651.980782	-74.328031
652.122604	-74.210105
652.264488	-74.111380
652.406433	-74.033271
652.548441	-73.976833
652.690510	-73.942743
652.832640	-73.931135
652.974833	-73.941621
653.117088	-73.973228
653.259405	-74.024390
653.401784	-74.092872
653.544224	-74.175770
653.686727	-74.269630
653.829293	-74.370527
653.971920	-74.474219
654.114609	-74.576348
654.257361	-74.672702
654.400175	-74.759592
654.543052	-74.834126
654.685991	-74.894559
654.828992	-74.940417
654.972056	-74.972574
655.115183	-74.993137
655.258372	-75.005251
655.401623	-75.012740
655.544937	-75.019771
655.688314	-75.030588
655.831754	-75.049206
655.975256	-75.079228
656.118822	-75.123605
656.262450	-75.184565
656.406141	-75.263485
656.549894	-75.360876
656.693711	-75.476374
656.837591	-75.608697
656.981534	-75.755681
657.125540	-75.914400
657.269610	-76.081366
657.413742	-76.252697
657.557938	-76.424346
657.702196	-76.592416
657.846519	-76.753579
657.990904	-76.905361
658.135353	-77.046410
658.279866	-77.176686
658.424441	-77.297450
658.569081	-77.411054
658.713784	-77.520568
658.858550	-77.629379
659.003381	-77.740701
659.148274	-77.857051
659.293232	-77.979892
659.438253	-78.109251
659.583339	-78.243510
659.728488	-78.379316
659.873701	-78.511544
660.018978	-78.633493
660.164318	-78.737306
660.309723	-78.814725
660.455192	-78.857980
660.600725	-78.860973
660.746323	-78.820207
660.891984	-78.735465
661.037710	-78.609946
661.183500	-78.449669
661.329354	-78.262616
661.475272	-78.057590
661.621255	-77.843161
661.767303	-77.626882
661.913415	-77.414762
662.059591	-77.211097
662.205833	-77.018364
662.352138	-76.837440
662.498509	-76.667650
662.644944	-76.507000
662.791443	-76.352331
662.938008	-76.199665
663.084638	-76.044524
663.231332	-75.882392
663.378091	-75.709120
663.524915	-75.521479
663.671804	-75.317561
663.818759	-75.097106
663.965778	-74.861576
664.112863	-74.613950
664.260012	-74.358346
664.407227	-74.099569
664.554507	-73.842609
664.701853	-73.592325
664.849264	-73.353077
664.996740	-73.128642
665.144282	-72.922072
665.291889	-72.735742
665.439561	-72.571377
665.587300	-72.430055
665.735103	-72.312258
665.882973	-72.217863
666.030908	-72.146156
666.178909	-72.095870
666.326976	-72.065159
666.475109	-72.051647
666.623307	-72.052521
666.771571	-72.064567
666.919902	-72.084378
667.068298	-72.108493
667.216761	-72.133624
667.365289	-72.156906
667.513884	-72.176037
667.662545	-72.189425
667.811272	-72.196313
667.960065	-72.196848
668.108925	-72.192081
668.257851	-72.183947
668.406843	-72.175181
668.555902	-72.169188
668.705027	-72.169792
668.854219	-72.181106
669.003478	-72.207350
669.152803	-72.252648
669.302195	-72.320901
669.451653	-72.415715
669.601179	-72.540402
669.750771	-72.697945
669.900430	-72.891036
670.050156	-73.122096
670.199949	-73.393307
670.349808	-73.706617
670.499735	-74.063724
670.649729	-74.466046
670.799790	-74.914695
670.949918	-75.410297
671.100114	-75.952739
671.250377	-76.540871
671.400707	-77.172102
671.551104	-77.841788
671.701569	-78.542474
671.852101	-79.263065
672.002700	-79.988467
672.153368	-80.699644
672.304102	-81.374751
672.454905	-81.991808
672.605775	-82.532825
672.756713	-82.988295
672.907718	-83.360043
673.058791	-83.661126
673.209933	-83.912629
673.361142	-84.138997
673.512419	-84.363033
673.663764	-84.601974
673.815177	-84.864391
673.966658	-85.147653
674.118207	-85.434852
674.269825	-85.691874
674.421510	-85.867331
674.573264	-85.899474
674.725086	-85.734535
674.876977	-85.349427
675.028936	-84.763893
675.180963	-84.030968
675.333059	-83.214879
675.485224	-82.372584
675.637457	-81.545923
675.789758	-80.762199
675.942129	-80.037581
676.094568	-79.380821
676.247075	-78.796024
676.399652	-78.284556
676.552298	-77.846142
676.705012	-77.479687
676.857795	-77.183864
677.010648	-76.957518
677.163569	-76.799730
677.316560	-76.709899
677.469619	-76.687736
677.622748	-76.733272
677.775946	-76.846728
677.929214	-77.028202
678.082551	-77.277303
678.235957	-77.592581
678.389432	-77.970957
678.542977	-78.406438
678.696592	-78.888268
678.850276	-79.398322
679.004030	-79.907893
679.157853	-80.374785
679.311746	-80.743671
679.465709	-80.954095
679.619742	-80.957841
679.773844	-80.738736
679.928017	-80.320296
680.082259	-79.754431
680.236571	-79.101092
680.390954	-78.412352
680.545406	-77.726078
680.699929	-77.066630
680.854522	-76.448073
681.009185	-75.877389
681.163918	-75.356949
681.318722	-74.886465
681.473596	-74.464113
681.628540	-74.087280
681.783555	-73.753014
681.938641	-73.458392
682.093797	-73.200608
682.249023	-72.977017
682.404321	-72.785109
682.559689	-72.622527
682.715128	-72.486879
682.870637	-72.375775
683.026218	-72.286906
683.181869	-72.218107
683.337591	-72.167491
683.493385	-72.133627
683.649249	-72.115622
683.805185	-72.113162
683.961191	-72.126418
684.117269	-72.155923
684.273418	-72.202507
684.429639	-72.267128
684.585930	-72.350824
684.742294	-72.454672
684.898728	-72.579943
685.055234	-72.728167
685.211812	-72.901149
685.368461	-73.100885
685.525182	-73.329558
685.681975	-73.589640
685.838839	-73.883797
685.995775	-74.214844
686.152783	-74.585769
686.309863	-74.999725
686.467014	-75.460024
686.624238	-75.970016
686.781534	-76.533006
686.938902	-77.151811
687.096342	-77.828205
687.253854	-78.562018
687.411438	-79.349601
687.569095	-80.181324
687.726824	-81.037619
687.884626	-81.883819
688.042499	-82.665440
688.200446	-83.308885
688.358465	-83.735488
688.516556	-83.891584
688.674720	-83.776578
688.832957	-83.443753
688.991266	-82.972485
689.149649	-82.438098
689.308104	-81.896709
689.466632	-81.383969
689.625233	-80.919372
689.783906	-80.511095
689.942653	-80.159879
690.101473	-79.861223
690.260367	-79.606905
690.419333	-79.385940
690.578372	-79.185154
690.737485	-78.989630
690.896672	-78.783102
691.055931	-78.548572
691.215264	-78.269683
691.374671	-77.932589
691.534151	-77.528133
691.693704	-77.053630
691.853332	-76.513580
692.013033	-75.918714
692.172807	-75.283633
692.332656	-74.624034
692.492578	-73.954728
692.652575	-73.288440
692.812645	-72.635255
692.972789	-72.002673
693.133007	-71.396030
693.293300	-70.819028
693.453666	-70.274185
693.614107	-69.763172
693.774622	-69.287024
693.935211	-68.846309
694.095875	-68.441276
694.256613	-68.071899
694.417426	-67.737898
694.578313	-67.438783
694.739274	-67.173869
694.900311	-66.942284
695.061421	-66.743028
695.222607	-66.574999
695.383868	-66.437040
695.545203	-66.327934
695.706613	-66.246417
695.868098	-66.191017
696.029658	-66.159945
696.191293	-66.151031
696.353003	-66.161567
696.514789	-66.188141
696.676649	-66.226693
696.838585	-66.272715
697.000596	-66.321428
697.162682	-66.367965
697.324844	-66.407607
697.487081	-66.436030
697.649394	-66.449478
697.811782	-66.444912
697.974246	-66.420130
698.136786	-66.373834
698.299401	-66.305838
698.462092	-66.217145
698.624859	-66.109947
698.787702	-65.987534
698.950621	-65.854047
699.113616	-65.714156
699.276686	-65.572745
699.439833	-65.434602
699.603056	-65.304169
699.766355	-65.185386
699.929731	-65.081632
700.093183	-64.995752
700.256711	-64.930052
700.420315	-64.886337
700.583996	-64.866011
700.747754	-64.870154
700.911588	-64.899580
701.075499	-64.954804
701.239486	-65.035997
701.403550	-65.142850
701.567691	-65.274405
701.731909	-65.428876
701.896203	-65.603420
702.060575	-65.793982
702.225024	-65.995083
702.389549	-66.199610
702.554152	-66.398750
702.718832	-66.582214
702.883589	-66.738783
703.048424	-66.857213
703.213335	-66.927478
703.378324	-66.942095
703.543391	-66.897190
703.708535	-66.793018
703.873757	-66.633719
704.039056	-66.426566
704.204433	-66.180889
704.369887	-65.907051
704.535420	-65.615500
704.701030	-65.316085
704.866718	-65.017558
705.032484	-64.727386
705.198328	-64.451664
705.364250	-64.195113
705.530250	-63.961182
705.696328	-63.752139
705.862485	-63.569253
706.028720	-63.412973
706.195033	-63.283008
706.361424	-63.178461
706.527894	-63.097962
706.694442	-63.039775
706.861069	-63.001834
707.027775	-62.981740
707.194559	-62.976769
707.361422	-62.983889
707.528363	-62.999705
707.695384	-63.020438
707.862483	-63.041973
708.029661	-63.059993
708.196918	-63.070122
708.364254	-63.068167
708.531670	-63.050298
708.699164	-63.013340
708.866738	-62.955082
709.034391	-62.874515
709.202123	-62.771980
709.369935	-62.649226
709.537826	-62.509229
709.705796	-62.355971
709.873847	-62.194066
710.041976	-62.028259
710.210186	-61.863063
710.378475	-61.702499
710.546844	-61.549920
710.715292	-61.407987
710.883821	-61.278832
711.052429	-61.164231
711.221118	-61.065755
711.389887	-60.984860
711.558735	-60.922918
711.727664	-60.881159
711.896673	-60.860606
712.065763	-60.862003
712.234932	-60.885700
712.404183	-60.931590
712.573513	-60.999082
712.742924	-61.087063
712.912416	-61.193941
713.081988	-61.317736
713.251641	-61.456150
713.421375	-61.606612
713.591190	-61.766323
713.761085	-61.932309
713.931061	-62.101446
714.101119	-62.270455
714.271257	-62.435954
714.441476	-62.594482
714.611777	-62.742645
714.782159	-62.877249
714.952622	-62.995575
715.123166	-63.095663
715.293792	-63.176507
715.464499	-63.238198
715.635288	-63.281977
715.806158	-63.310185
715.977110	-63.326103
716.148143	-63.333622
716.319259	-63.336971
716.490456	-63.340515
716.661735	-63.348452
716.833096	-63.364585
717.004538	-63.392175
717.176063	-63.433790
717.347670	-63.491207
717.519359	-63.565471
717.691130	-63.656992
717.862984	-63.765663
718.034920	-63.891050
718.206938	-64.032515
718.379039	-64.189305
718.551222	-64.360499
718.723488	-64.544829
718.895836	-64.740401
719.068267	-64.944498
719.240781	-65.153310
719.413377	-65.361855
719.586057	-65.564142
719.758819	-65.753461
719.931664	-65.923106
720.104593	-66.067188
720.277604	-66.181380
720.450699	-66.263664
720.623876	-66.314462
720.797137	-66.336418
720.970482	-66.333751
721.143910	-66.311580
721.317421	-66.275372
721.491016	-66.230563
721.664694	-66.182203
721.838456	-66.134834
722.012302	-66.092458
722.186231	-66.058614
722.360244	-66.036429
722.534342	-66.028550
722.708523	-66.037048
722.882788	-66.063345
723.057137	-66.108167
723.231570	-66.171433
723.406088	-66.252027
723.580689	-66.347543
723.755375	-66.454249
723.930146	-66.567083
724.105000	-66.679697
724.279940	-66.784650
724.454963	-66.873972
724.630072	-66.940024
724.805265	-66.976359
724.980543	-66.978454
725.155905	-66.944206
725.331353	-66.873983
725.506885	-66.770402
725.682503	-66.637908
725.858205	-66.481938
726.033993	-66.308600
726.209865	-66.124399
726.385823	-65.935814
726.561866	-65.749001
726.737995	-65.569701
726.914209	-65.403274
727.090508	-65.254722
727.266893	-65.128640
727.443364	-65.029244
727.619920	-64.960244
727.796562	-64.924957
727.973290	-64.926358
728.150103	-64.966955
728.327003	-65.048753
728.503988	-65.173269
728.681060	-65.341577
728.858218	-65.554291
729.035461	-65.811589
