# 2022-03-21_18.14.13
# shape = sech2
# FWHM_ps = 0.1
# carrier_nm = 1542
# frep_MHz = 12126
# pow_mW = 8000
# GDD = 0.0
# propa_len = 0.15222222222222223
# untap_len = 0.01
# taper_len = 0.09222222222222223
# waist_len = 0.02
# uptap_len = 0.02
# untap_scale = 1.0
# waist_scale = 0.2388888888888889
# workingDir = NL_20110305_12 (Spirou)
# axis = slow
# window_ps = 10.0
# steps = 200
# points = 21700
# 
# wavelength [nm]	 power spectral density [dB]
600.043425	-101.311559
600.163550	-100.905078
600.283723	-100.526817
600.403943	-100.196512
600.524212	-99.914343
600.644529	-99.669023
600.764895	-99.468691
600.885308	-99.315236
601.005770	-99.200213
601.126280	-99.088385
601.246839	-98.945707
601.367446	-98.748384
601.488101	-98.470074
601.608804	-98.109146
601.729557	-97.680970
601.850357	-97.207995
601.971206	-96.737756
602.092104	-96.303589
602.213050	-95.922478
602.334045	-95.607913
602.455089	-95.354230
602.576181	-95.156841
602.697322	-95.004205
602.818511	-94.880472
602.939749	-94.772407
603.061036	-94.660866
603.182372	-94.538534
603.303757	-94.406898
603.425191	-94.268586
603.546673	-94.120736
603.668204	-93.956963
603.789785	-93.795427
603.911414	-93.649804
604.033092	-93.518422
604.154820	-93.391021
604.276596	-93.264468
604.398422	-93.147096
604.520297	-93.054816
604.642220	-92.999336
604.764193	-92.978736
604.886216	-92.988613
605.008287	-93.021630
605.130408	-93.064821
605.252578	-93.109117
605.374798	-93.141481
605.497066	-93.152874
605.619385	-93.135519
605.741752	-93.071928
605.864169	-92.962446
605.986636	-92.816576
606.109152	-92.649645
606.231718	-92.487649
606.354333	-92.355023
606.476998	-92.277537
606.599712	-92.268167
606.722476	-92.338772
606.845290	-92.487934
606.968154	-92.687783
607.091067	-92.904052
607.214030	-93.077553
607.337043	-93.139440
607.460106	-93.039133
607.583219	-92.773225
607.706381	-92.401430
607.829594	-92.003441
607.952856	-91.632840
608.076169	-91.328480
608.199531	-91.119194
608.322944	-91.013874
608.446407	-91.007057
608.569920	-91.089398
608.693483	-91.239041
608.817096	-91.417695
608.940759	-91.572419
609.064473	-91.660688
609.188237	-91.664491
609.312051	-91.592460
609.435916	-91.475447
609.559831	-91.343668
609.683796	-91.229128
609.807812	-91.164202
609.931878	-91.170514
610.055995	-91.268657
610.180162	-91.452736
610.304380	-91.698593
610.428648	-91.977013
610.552967	-92.250640
610.677337	-92.483365
610.801757	-92.634680
610.926228	-92.685708
611.050750	-92.647559
611.175323	-92.534474
611.299946	-92.377257
611.424620	-92.205723
611.549345	-92.030803
611.674121	-91.854664
611.798948	-91.673827
611.923826	-91.504426
612.048755	-91.368904
612.173734	-91.276061
612.298765	-91.240715
612.423847	-91.272847
612.548980	-91.379165
612.674165	-91.538979
612.799400	-91.721305
612.924687	-91.909679
613.050025	-92.076592
613.175414	-92.181604
613.300854	-92.194477
613.426346	-92.123263
613.551889	-91.990684
613.677484	-91.826999
613.803130	-91.671974
613.928827	-91.569366
614.054576	-91.543002
614.180377	-91.612544
614.306229	-91.793625
614.432132	-92.071710
614.558087	-92.422804
614.684094	-92.793767
614.810153	-93.128118
614.936263	-93.357751
615.062425	-93.414062
615.188639	-93.276190
615.314904	-92.986863
615.441222	-92.617643
615.567591	-92.225410
615.694012	-91.860441
615.820486	-91.564022
615.947011	-91.370470
616.073588	-91.286757
616.200217	-91.293108
616.326898	-91.358220
616.453632	-91.453746
616.580417	-91.553546
616.707255	-91.625262
616.834144	-91.642875
616.961086	-91.605386
617.088081	-91.528709
617.215127	-91.428199
617.342226	-91.300627
617.469378	-91.154793
617.596581	-90.994717
617.723837	-90.813414
617.851146	-90.619633
617.978507	-90.431066
618.105920	-90.277641
618.233386	-90.176258
618.360905	-90.144355
618.488476	-90.197745
618.616100	-90.338406
618.743777	-90.559551
618.871506	-90.831197
618.999288	-91.130160
619.127123	-91.416375
619.255011	-91.641275
619.382951	-91.771703
619.510945	-91.789124
619.638991	-91.715188
619.767090	-91.561419
619.895243	-91.367679
620.023448	-91.196458
620.151706	-91.080426
620.280017	-91.041321
620.408382	-91.081124
620.536799	-91.212005
620.665270	-91.432882
620.793794	-91.728860
620.922371	-92.095114
621.051002	-92.508552
621.179686	-92.956519
621.308423	-93.428547
621.437213	-93.909132
621.566057	-94.395820
621.694954	-94.865014
621.823905	-95.309054
621.952909	-95.702899
622.081967	-96.010335
622.211079	-96.209775
622.340244	-96.280250
622.469462	-96.276261
622.598735	-96.240952
622.728061	-96.223588
622.857441	-96.273128
622.986874	-96.415092
623.116361	-96.698061
623.245903	-97.144377
623.375498	-97.756925
623.505147	-98.522762
623.634850	-99.412925
623.764606	-100.394324
623.894417	-101.321273
624.024282	-102.039971
624.154201	-102.308725
624.284174	-102.022551
624.414202	-101.399457
624.544283	-100.670023
624.674419	-99.991976
624.804609	-99.411811
624.934853	-98.970934
625.065151	-98.671284
625.195504	-98.517954
625.325911	-98.523570
625.456373	-98.676251
625.586889	-99.003955
625.717460	-99.523452
625.848085	-100.256166
625.978764	-101.243040
626.109498	-102.498330
626.240287	-104.030033
626.371131	-105.629504
626.502029	-106.938899
626.632982	-107.545338
626.763989	-107.204049
626.895052	-106.188648
627.026169	-104.988056
627.157341	-103.900758
627.288568	-102.989072
627.419850	-102.334131
627.551187	-101.947612
627.682579	-101.826486
627.814026	-101.951922
627.945528	-102.307939
628.077085	-102.860680
628.208697	-103.460395
628.340364	-103.948077
628.472087	-104.100069
628.603865	-103.807564
628.735698	-103.141266
628.867586	-102.281230
628.999530	-101.352851
629.131529	-100.386963
629.263584	-99.448066
629.395694	-98.544099
629.527859	-97.711229
629.660080	-96.958434
629.792357	-96.308277
629.924689	-95.781978
630.057077	-95.364751
630.189520	-95.079597
630.322019	-94.907662
630.454574	-94.837066
630.587184	-94.857693
630.719851	-94.922387
630.852573	-95.010264
630.985351	-95.085836
631.118185	-95.144208
631.251075	-95.174312
631.384021	-95.155805
631.517023	-95.131903
631.650081	-95.094172
631.783195	-95.056424
631.916365	-95.021659
632.049592	-94.957406
632.182874	-94.819443
632.316213	-94.585288
632.449608	-94.306225
632.583059	-93.994707
632.716567	-93.662483
632.850131	-93.330839
632.983751	-93.013601
633.117428	-92.735854
633.251161	-92.494114
633.384951	-92.296858
633.518797	-92.155535
633.652700	-92.055177
633.786660	-91.990189
633.920676	-91.967761
634.054749	-91.990832
634.188879	-92.044230
634.323065	-92.115538
634.457308	-92.227920
634.591608	-92.388600
634.725965	-92.584557
634.860379	-92.804221
634.994850	-93.034430
635.129377	-93.243306
635.263962	-93.396207
635.398604	-93.487014
635.533303	-93.515055
635.668058	-93.484564
635.802872	-93.411695
635.937742	-93.316085
636.072669	-93.202821
636.207654	-93.055717
636.342696	-92.870191
636.477796	-92.631416
636.612953	-92.337406
636.748167	-91.998730
636.883439	-91.631337
637.018768	-91.252333
637.154155	-90.861394
637.289599	-90.469431
637.425101	-90.082534
637.560660	-89.720731
637.696277	-89.397265
637.831952	-89.112471
637.967685	-88.869012
638.103475	-88.665681
638.239324	-88.502624
638.375230	-88.393476
638.511194	-88.336460
638.647215	-88.322614
638.783295	-88.347441
638.919433	-88.405129
639.055629	-88.491227
639.191883	-88.584230
639.328195	-88.672190
639.464565	-88.741855
639.600994	-88.773560
639.737481	-88.766196
639.874025	-88.714513
640.010629	-88.623123
640.147290	-88.484943
640.284010	-88.311864
640.420789	-88.123596
640.557625	-87.919091
640.694521	-87.702106
640.831474	-87.472365
640.968487	-87.242898
641.105558	-87.021788
641.242687	-86.812457
641.379876	-86.624916
641.517123	-86.460667
641.654429	-86.324944
641.791793	-86.222557
641.929216	-86.144816
642.066699	-86.081261
642.204240	-86.025938
642.341840	-85.979712
642.479499	-85.943554
642.617217	-85.909014
642.754994	-85.882256
642.892830	-85.857768
643.030726	-85.823970
643.168680	-85.768203
643.306694	-85.671660
643.444767	-85.528751
643.582899	-85.345360
643.721091	-85.135160
643.859342	-84.907745
643.997652	-84.669126
644.136022	-84.437958
644.274451	-84.227214
644.412940	-84.040473
644.551488	-83.866705
644.690096	-83.702351
644.828763	-83.543453
644.967490	-83.385614
645.106277	-83.231101
645.245124	-83.078438
645.384030	-82.926674
645.522997	-82.774552
645.662023	-82.620784
645.801109	-82.465753
645.940255	-82.303779
646.079460	-82.139137
646.218726	-81.978205
646.358052	-81.828367
646.497438	-81.689274
646.636884	-81.553544
646.776391	-81.424287
646.915957	-81.298661
647.055584	-81.178606
647.195271	-81.058730
647.335019	-80.937795
647.474826	-80.824569
647.614695	-80.723742
647.754623	-80.644572
647.894612	-80.589392
648.034662	-80.563610
648.174772	-80.570807
648.314943	-80.600698
648.455174	-80.651782
648.595466	-80.716590
648.735819	-80.794326
648.876233	-80.880387
649.016707	-80.964373
649.157242	-81.045524
649.297838	-81.117003
649.438495	-81.184387
649.579213	-81.244702
649.719992	-81.292016
649.860832	-81.329426
650.001733	-81.363085
650.142695	-81.399521
650.283718	-81.439150
650.424803	-81.489850
650.565949	-81.556821
650.707156	-81.640139
650.848424	-81.746150
650.989754	-81.864775
651.131145	-81.987882
651.272597	-82.112761
651.414111	-82.231835
651.555687	-82.348823
651.697324	-82.466474
651.839022	-82.597805
651.980782	-82.748353
652.122604	-82.911725
652.264488	-83.090551
652.406433	-83.268219
652.548441	-83.432008
652.690510	-83.569149
652.832640	-83.666703
652.974833	-83.727425
653.117088	-83.743588
653.259405	-83.712584
653.401784	-83.638124
653.544224	-83.527385
653.686727	-83.387834
653.829293	-83.227725
653.971920	-83.050466
654.114609	-82.865175
654.257361	-82.691208
654.400175	-82.533946
654.543052	-82.392362
654.685991	-82.264613
654.828992	-82.148323
654.972056	-82.042133
655.115183	-81.936625
655.258372	-81.816042
655.401623	-81.679949
655.544937	-81.541923
655.688314	-81.409701
655.831754	-81.289367
655.975256	-81.186125
656.118822	-81.104636
656.262450	-81.045391
656.406141	-80.998915
656.549894	-80.954853
656.693711	-80.910907
656.837591	-80.870514
656.981534	-80.834784
657.125540	-80.803468
657.269610	-80.779819
657.413742	-80.768447
657.557938	-80.764093
657.702196	-80.769020
657.846519	-80.781746
657.990904	-80.804791
658.135353	-80.850567
658.279866	-80.915331
658.424441	-81.007281
658.569081	-81.130488
658.713784	-81.275447
658.858550	-81.431121
659.003381	-81.586656
659.148274	-81.739764
659.293232	-81.885609
659.438253	-82.026056
659.583339	-82.169931
659.728488	-82.333640
659.873701	-82.527123
660.018978	-82.754721
660.164318	-83.014511
660.309723	-83.293000
660.455192	-83.571664
660.600725	-83.828051
660.746323	-84.049113
660.891984	-84.240036
661.037710	-84.420251
661.183500	-84.596752
661.329354	-84.772350
661.475272	-84.955696
661.621255	-85.137446
661.767303	-85.310989
661.913415	-85.474929
662.059591	-85.631733
662.205833	-85.804247
662.352138	-85.988067
662.498509	-86.176890
662.644944	-86.391218
662.791443	-86.609276
662.938008	-86.818117
663.084638	-87.018389
663.231332	-87.211396
663.378091	-87.436455
663.524915	-87.681004
663.671804	-87.958811
663.818759	-88.303260
663.965778	-88.701634
664.112863	-89.142904
664.260012	-89.582765
664.407227	-90.002780
664.554507	-90.379615
664.701853	-90.674758
664.849264	-90.897569
664.996740	-91.055386
665.144282	-91.162593
665.291889	-91.214605
665.439561	-91.232752
665.587300	-91.219332
665.735103	-91.199987
665.882973	-91.209467
666.030908	-91.247113
666.178909	-91.323643
666.326976	-91.420128
666.475109	-91.509139
666.623307	-91.571828
666.771571	-91.570734
666.919902	-91.535663
667.068298	-91.508627
667.216761	-91.527100
667.365289	-91.621293
667.513884	-91.783979
667.662545	-92.027540
667.811272	-92.324274
667.960065	-92.621799
668.108925	-92.894301
668.257851	-93.089033
668.406843	-93.237168
668.555902	-93.333985
668.705027	-93.404244
668.854219	-93.529603
669.003478	-93.754856
669.152803	-94.091024
669.302195	-94.516507
669.451653	-95.008523
669.601179	-95.486188
669.750771	-95.876738
669.900430	-96.119024
670.050156	-96.258106
670.199949	-96.344875
670.349808	-96.429875
670.499735	-96.590481
670.649729	-96.868374
670.799790	-97.308108
670.949918	-97.906488
671.100114	-98.548298
671.250377	-99.111421
671.400707	-99.404431
671.551104	-99.414537
671.701569	-99.283104
671.852101	-99.109014
672.002700	-99.056024
672.153368	-99.142081
672.304102	-99.324391
672.454905	-99.543588
672.605775	-99.698959
672.756713	-99.630331
672.907718	-99.193699
673.058791	-98.469932
673.209933	-97.651156
673.361142	-96.901101
673.512419	-96.286139
673.663764	-95.863644
673.815177	-95.621879
673.966658	-95.473547
674.118207	-95.409621
674.269825	-95.405143
674.421510	-95.419957
674.573264	-95.411183
674.725086	-95.344798
674.876977	-95.170173
675.028936	-94.889635
675.180963	-94.495072
675.333059	-94.024234
675.485224	-93.551335
675.637457	-93.109313
675.789758	-92.733108
675.942129	-92.427210
676.094568	-92.173439
676.247075	-91.952548
676.399652	-91.697786
676.552298	-91.371893
676.705012	-90.997625
676.857795	-90.574328
677.010648	-90.138073
677.163569	-89.715707
677.316560	-89.321130
677.469619	-88.971910
677.622748	-88.651195
677.775946	-88.366774
677.929214	-88.119327
678.082551	-87.884116
678.235957	-87.638620
678.389432	-87.365863
678.542977	-87.059842
678.696592	-86.724225
678.850276	-86.386122
679.004030	-86.082685
679.157853	-85.835109
679.311746	-85.654002
679.465709	-85.549601
679.619742	-85.509781
679.773844	-85.506504
679.928017	-85.508923
680.082259	-85.493858
680.236571	-85.475857
680.390954	-85.481574
680.545406	-85.523313
680.699929	-85.630615
680.854522	-85.824623
681.009185	-86.126102
681.163918	-86.519998
681.318722	-87.002349
681.473596	-87.593872
681.628540	-88.282398
681.783555	-89.045177
681.938641	-89.808961
682.093797	-90.448323
682.249023	-90.766909
682.404321	-90.623255
682.559689	-90.136072
682.715128	-89.472871
682.870637	-88.780803
683.026218	-88.094460
683.181869	-87.377391
683.337591	-86.586938
683.493385	-85.706394
683.649249	-84.801161
683.805185	-83.931796
683.961191	-83.155235
684.117269	-82.500662
684.273418	-81.961030
684.429639	-81.538832
684.585930	-81.202608
684.742294	-80.939038
684.898728	-80.744778
685.055234	-80.600040
685.211812	-80.504566
685.368461	-80.442217
685.525182	-80.404430
685.681975	-80.398847
685.838839	-80.437233
685.995775	-80.538828
686.152783	-80.718767
686.309863	-80.986129
686.467014	-81.335832
686.624238	-81.731585
686.781534	-82.134768
686.938902	-82.513516
687.096342	-82.855306
687.253854	-83.172915
687.411438	-83.486983
687.569095	-83.820366
687.726824	-84.161120
687.884626	-84.485483
688.042499	-84.736845
688.200446	-84.853372
688.358465	-84.816714
688.516556	-84.645765
688.674720	-84.397627
688.832957	-84.128794
688.991266	-83.880180
689.149649	-83.657809
689.308104	-83.471935
689.466632	-83.335055
689.625233	-83.246226
689.783906	-83.212748
689.942653	-83.207102
690.101473	-83.209042
690.260367	-83.201632
690.419333	-83.193921
690.578372	-83.203014
690.737485	-83.243632
690.896672	-83.342260
691.055931	-83.504349
691.215264	-83.722164
691.374671	-83.985664
691.534151	-84.261507
691.693704	-84.529682
691.853332	-84.777258
692.013033	-84.984020
692.172807	-85.160294
692.332656	-85.290520
692.492578	-85.383835
692.652575	-85.437451
692.812645	-85.436876
692.972789	-85.387808
693.133007	-85.287481
693.293300	-85.129475
693.453666	-84.912105
693.614107	-84.637781
693.774622	-84.310472
693.935211	-83.955862
694.095875	-83.580549
694.256613	-83.205444
694.417426	-82.865418
694.578313	-82.558352
694.739274	-82.296153
694.900311	-82.059582
695.061421	-81.826659
695.222607	-81.582694
695.383868	-81.309350
695.545203	-81.031724
695.706613	-80.778095
695.868098	-80.555108
696.029658	-80.386265
696.191293	-80.272631
696.353003	-80.207543
696.514789	-80.193177
696.676649	-80.203963
696.838585	-80.229637
697.000596	-80.260927
697.162682	-80.291014
697.324844	-80.352984
697.487081	-80.459681
697.649394	-80.628818
697.811782	-80.872494
697.974246	-81.166648
698.136786	-81.495452
698.299401	-81.838710
698.462092	-82.167016
698.624859	-82.496687
698.787702	-82.828590
698.950621	-83.167134
699.113616	-83.541547
699.276686	-83.899867
699.439833	-84.219198
699.603056	-84.466637
699.766355	-84.572453
699.929731	-84.555977
700.093183	-84.400013
700.256711	-84.122739
700.420315	-83.779815
700.583996	-83.394218
700.747754	-83.044883
700.911588	-82.744427
701.075499	-82.497237
701.239486	-82.295192
701.403550	-82.114485
701.567691	-81.960428
701.731909	-81.831859
701.896203	-81.760221
702.060575	-81.788611
702.225024	-81.918390
702.389549	-82.166880
702.554152	-82.524994
702.718832	-82.961711
702.883589	-83.472067
703.048424	-84.040124
703.213335	-84.642764
703.378324	-85.276682
703.543391	-85.914576
703.708535	-86.504384
703.873757	-87.004970
704.039056	-87.360716
704.204433	-87.506736
704.369887	-87.437749
704.535420	-87.198912
704.701030	-86.849349
704.866718	-86.461965
705.032484	-86.091370
705.198328	-85.751761
705.364250	-85.443504
705.530250	-85.179812
705.696328	-84.980442
705.862485	-84.858687
706.028720	-84.847283
706.195033	-84.962663
706.361424	-85.179051
706.527894	-85.486806
706.694442	-85.860258
706.861069	-86.269595
707.027775	-86.702428
707.194559	-87.151445
707.361422	-87.582035
707.528363	-87.974362
707.695384	-88.297539
707.862483	-88.511956
708.029661	-88.625194
708.196918	-88.657983
708.364254	-88.653943
708.531670	-88.685715
708.699164	-88.822066
708.866738	-89.126516
709.034391	-89.666235
709.202123	-90.445880
709.369935	-91.495736
709.537826	-92.800541
709.705796	-94.213460
709.873847	-95.466015
710.041976	-95.997302
710.210186	-95.331646
710.378475	-93.788282
710.546844	-91.960056
710.715292	-90.197996
710.883821	-88.668353
711.052429	-87.417764
711.221118	-86.442140
711.389887	-85.745551
711.558735	-85.311578
711.727664	-85.135646
711.896673	-85.180066
712.065763	-85.396778
712.234932	-85.772522
712.404183	-86.259289
712.573513	-86.880951
712.742924	-87.722382
712.912416	-88.884890
713.081988	-90.589602
713.251641	-92.969617
713.421375	-95.627091
713.591190	-96.113424
713.761085	-93.575454
713.931061	-90.789167
714.101119	-88.640249
714.271257	-86.993044
714.441476	-85.700266
714.611777	-84.715678
714.782159	-83.951883
714.952622	-83.426445
715.123166	-83.125712
715.293792	-82.993347
715.464499	-83.056293
715.635288	-83.299027
715.806158	-83.737254
715.977110	-84.429905
716.148143	-85.392697
716.319259	-86.570204
716.490456	-87.742882
716.661735	-88.542223
716.833096	-88.592077
717.004538	-88.061507
717.176063	-87.229729
717.347670	-86.290999
717.519359	-85.363187
717.691130	-84.397092
717.862984	-83.521393
718.034920	-82.813151
718.206938	-82.313708
718.379039	-82.087066
718.551222	-82.131905
718.723488	-82.453804
718.895836	-83.054444
719.068267	-83.938691
719.240781	-85.155823
719.413377	-86.766750
719.586057	-88.884811
719.758819	-91.503541
719.931664	-93.673654
720.104593	-92.858950
720.277604	-89.925557
720.450699	-87.091501
720.623876	-84.785211
720.797137	-82.975631
720.970482	-81.577801
721.143910	-80.502704
721.317421	-79.717910
721.491016	-79.171289
721.664694	-78.800019
721.838456	-78.603552
722.012302	-78.563976
722.186231	-78.654256
722.360244	-78.893784
722.534342	-79.255289
722.708523	-79.699848
722.882788	-80.204154
723.057137	-80.698550
723.231570	-81.146239
723.406088	-81.540778
723.580689	-81.841270
723.755375	-81.991305
723.930146	-81.938100
724.105000	-81.670209
724.279940	-81.276611
724.454963	-80.856075
724.630072	-80.466420
724.805265	-80.184976
724.980543	-80.040900
725.155905	-80.083764
725.331353	-80.386929
725.506885	-80.981030
725.682503	-81.893995
725.858205	-83.132773
726.033993	-84.677732
726.209865	-86.567117
726.385823	-88.883076
726.561866	-91.451975
726.737995	-92.145784
726.914209	-89.476099
727.090508	-86.261625
727.266893	-83.678733
727.443364	-81.695514
727.619920	-80.167792
727.796562	-79.000899
727.973290	-78.124223
728.150103	-77.501968
728.327003	-77.104805
728.503988	-76.923139
728.681060	-76.951243
728.858218	-77.198922
729.035461	-77.689051
729.212791	-78.429447
