# 2022-03-21_14.33.36
# shape = sech2
# FWHM_ps = 0.1
# carrier_nm = 1542
# frep_MHz = 12126
# pow_mW = 8000
# GDD = 0.0
# propa_len = 0.13666666666666666
# untap_len = 0.01
# taper_len = 0.07666666666666666
# waist_len = 0.02
# uptap_len = 0.02
# untap_scale = 1.0
# waist_scale = 0.33333333333333337
# workingDir = NL_20110305_12 (Spirou)
# axis = slow
# window_ps = 10.0
# steps = 200
# points = 13000
# 
# wavelength [nm]	 power spectral density [dB]
1000.248639	-51.649233
1000.582480	-50.719398
1000.916545	-49.875872
1001.250832	-49.113654
1001.585343	-48.426632
1001.920077	-47.807080
1002.255035	-47.246785
1002.590218	-46.737824
1002.925624	-46.273133
1003.261255	-45.846703
1003.597111	-45.453539
1003.933192	-45.089516
1004.269497	-44.751547
1004.606029	-44.437754
1004.942785	-44.147332
1005.279768	-43.880341
1005.616977	-43.637307
1005.954412	-43.419015
1006.292074	-43.226462
1006.629962	-43.060621
1006.968077	-42.922095
1007.306420	-42.810791
1007.644990	-42.725819
1007.983787	-42.665697
1008.322813	-42.628482
1008.662067	-42.611798
1009.001549	-42.612890
1009.341259	-42.628802
1009.681199	-42.656832
1010.021367	-42.694926
1010.361765	-42.741751
1010.702392	-42.796695
1011.043250	-42.859896
1011.384337	-42.932472
1011.725654	-43.016640
1012.067202	-43.115529
1012.408980	-43.232770
1012.750989	-43.372204
1013.093230	-43.537739
1013.435702	-43.733317
1013.778405	-43.962698
1014.121341	-44.229027
1014.464508	-44.534466
1014.807908	-44.880082
1015.151540	-45.265782
1015.495405	-45.690127
1015.839503	-46.149747
1016.183835	-46.638465
1016.528400	-47.146491
1016.873198	-47.660031
1017.218231	-48.161214
1017.563498	-48.628411
1017.908999	-49.037791
1018.254735	-49.366817
1018.600707	-49.599398
1018.946913	-49.730712
1019.293354	-49.768985
1019.640032	-49.732782
1019.986945	-49.646061
1020.334094	-49.533564
1020.681480	-49.417961
1021.029102	-49.318346
1021.376961	-49.249959
1021.725058	-49.224657
1022.073391	-49.252002
1022.421962	-49.340883
1022.770772	-49.500668
1023.119819	-49.741890
1023.469104	-50.076691
1023.818628	-50.518918
1024.168391	-51.084314
1024.518393	-51.789822
1024.868634	-52.649809
1025.219115	-53.663960
1025.569836	-54.782912
1025.920796	-55.829180
1026.271997	-56.403094
1026.623438	-56.044884
1026.975121	-54.762169
1027.327044	-53.018970
1027.679208	-51.209427
1028.031614	-49.506674
1028.384262	-47.958216
1028.737152	-46.563558
1029.090284	-45.307642
1029.443659	-44.172840
1029.797276	-43.142712
1030.151137	-42.203000
1030.505240	-41.341504
1030.859587	-40.547838
1031.214178	-39.813152
1031.569013	-39.129899
1031.924093	-38.491712
1032.279417	-37.893205
1032.634985	-37.329830
1032.990799	-36.797702
1033.346858	-36.293504
1033.703162	-35.814430
1034.059712	-35.358132
1034.416509	-34.922629
1034.773551	-34.506190
1035.130841	-34.107238
1035.488377	-33.724288
1035.846160	-33.355928
1036.204190	-33.000833
1036.562468	-32.657870
1036.920994	-32.326196
1037.279768	-32.005338
1037.638790	-31.695179
1037.998061	-31.395886
1038.357581	-31.107783
1038.717350	-30.831192
1039.077368	-30.566314
1039.437636	-30.313121
1039.798154	-30.071353
1040.158922	-29.840593
1040.519940	-29.620423
1040.881209	-29.410602
1041.242729	-29.211212
1041.604501	-29.022739
1041.966524	-28.846045
1042.328798	-28.682212
1042.691325	-28.532340
1043.054103	-28.397337
1043.417135	-28.277761
1043.780419	-28.173765
1044.143956	-28.085104
1044.507746	-28.011233
1044.871791	-27.951444
1045.236088	-27.904992
1045.600641	-27.871184
1045.965447	-27.849424
1046.330508	-27.839232
1046.695824	-27.840221
1047.061395	-27.852068
1047.427222	-27.874478
1047.793304	-27.907131
1048.159642	-27.949650
1048.526237	-28.001569
1048.893088	-28.062327
1049.260196	-28.131293
1049.627561	-28.207791
1049.995183	-28.291134
1050.363063	-28.380661
1050.731201	-28.475756
1051.099597	-28.575854
1051.468251	-28.680450
1051.837164	-28.789091
1052.206336	-28.901358
1052.575767	-29.016835
1052.945458	-29.135094
1053.315409	-29.255679
1053.685619	-29.378091
1054.056090	-29.501778
1054.426821	-29.626145
1054.797814	-29.750595
1055.169067	-29.874543
1055.540582	-29.997413
1055.912359	-30.118625
1056.284398	-30.237564
1056.656698	-30.353538
1057.029262	-30.465730
1057.402088	-30.573161
1057.775177	-30.674657
1058.148530	-30.768826
1058.522146	-30.854059
1058.896027	-30.928566
1059.270171	-30.990437
1059.644580	-31.037703
1060.019254	-31.068442
1060.394193	-31.080910
1060.769397	-31.073646
1061.144867	-31.045542
1061.520602	-30.995886
1061.896604	-30.924381
1062.272872	-30.831139
1062.649407	-30.716629
1063.026210	-30.581624
1063.403279	-30.427134
1063.780616	-30.254327
1064.158221	-30.064458
1064.536094	-29.858794
1064.914235	-29.638550
1065.292645	-29.404865
1065.671325	-29.158828
1066.050273	-28.901516
1066.429491	-28.633999
1066.808979	-28.357374
1067.188738	-28.072795
1067.568766	-27.781486
1067.949066	-27.484717
1068.329636	-27.183792
1068.710478	-26.880009
1069.091592	-26.574616
1069.472977	-26.268753
1069.854635	-25.963425
1070.236565	-25.659454
1070.618768	-25.357485
1071.001243	-25.058010
1071.383993	-24.761416
1071.767016	-24.468012
1072.150313	-24.178088
1072.533884	-23.891975
1072.917730	-23.610071
1073.301850	-23.332862
1073.686246	-23.060912
1074.070917	-22.794853
1074.455864	-22.535331
1074.841087	-22.282962
1075.226586	-22.038283
1075.612362	-21.801705
1075.998415	-21.573476
1076.384745	-21.353668
1076.771353	-21.142177
1077.158238	-20.938742
1077.545401	-20.742979
1077.932843	-20.554431
1078.320564	-20.372606
1078.708564	-20.197025
1079.096842	-20.027262
1079.485401	-19.862968
1079.874240	-19.703875
1080.263358	-19.549797
1080.652757	-19.400607
1081.042438	-19.256204
1081.432399	-19.116479
1081.822641	-18.981279
1082.213166	-18.850372
1082.603972	-18.723447
1082.995061	-18.600121
1083.386433	-18.479960
1083.778087	-18.362517
1084.170025	-18.247383
1084.562246	-18.134228
1084.954751	-18.022846
1085.347541	-17.913195
1085.740615	-17.805416
1086.133973	-17.699821
1086.527617	-17.596879
1086.921546	-17.497166
1087.315761	-17.401309
1087.710262	-17.309929
1088.105050	-17.223588
1088.500124	-17.142729
1088.895485	-17.067654
1089.291134	-16.998508
1089.687070	-16.935278
1090.083294	-16.877812
1090.479806	-16.825855
1090.876607	-16.779098
1091.273696	-16.737214
1091.671075	-16.699916
1092.068744	-16.667007
1092.466702	-16.638414
1092.864950	-16.614202
1093.263489	-16.594578
1093.662319	-16.579877
1094.061440	-16.570531
1094.460852	-16.567006
1094.860555	-16.569743
1095.260551	-16.579099
1095.660840	-16.595283
1096.061421	-16.618311
1096.462295	-16.647972
1096.863462	-16.683830
1097.264923	-16.725232
1097.666678	-16.771349
1098.068727	-16.821251
1098.471071	-16.873988
1098.873710	-16.928681
1099.276644	-16.984614
1099.679874	-17.041316
1100.083400	-17.098624
1100.487222	-17.156709
1100.891340	-17.216080
1101.295756	-17.277554
1101.700468	-17.342177
1102.105478	-17.411134
1102.510787	-17.485645
1102.916393	-17.566860
1103.322298	-17.655765
1103.728502	-17.753114
1104.135005	-17.859357
1104.541807	-17.974611
1104.948909	-18.098645
1105.356312	-18.230908
1105.764015	-18.370600
1106.172019	-18.516751
1106.580324	-18.668323
1106.988931	-18.824348
1107.397840	-18.984067
1107.807051	-19.147043
1108.216564	-19.313284
1108.626380	-19.483302
1109.036500	-19.658124
1109.446923	-19.839270
1109.857649	-20.028676
1110.268680	-20.228582
1110.680016	-20.441402
1111.091657	-20.669573
1111.503602	-20.915398
1111.915854	-21.180901
1112.328411	-21.467701
1112.741275	-21.776914
1113.154445	-22.109045
1113.567922	-22.463922
1113.981706	-22.840654
1114.395798	-23.237594
1114.810198	-23.652372
1115.224906	-24.082042
1115.639923	-24.523255
1116.055249	-24.972560
1116.470884	-25.426848
1116.886829	-25.883864
1117.303084	-26.342767
1117.719650	-26.804658
1118.136526	-27.272979
1118.553713	-27.753768
1118.971212	-28.255798
1119.389022	-28.790570
1119.807145	-29.372282
1120.225580	-30.017967
1120.644328	-30.747950
1121.063389	-31.586724
1121.482763	-32.564470
1121.902452	-33.719280
1122.322454	-35.099502
1122.742771	-36.762389
1123.163404	-38.749463
1123.584351	-40.950839
1124.005614	-42.630251
1124.427193	-42.342790
1124.849089	-40.317765
1125.271301	-37.985754
1125.693830	-35.914654
1126.116677	-34.164011
1126.539842	-32.684991
1126.963324	-31.421968
1127.387126	-30.329546
1127.811246	-29.372722
1128.235685	-28.524423
1128.660444	-27.763245
1129.085522	-27.071922
1129.510922	-26.436301
1129.936641	-25.844795
1130.362682	-25.288003
1130.789044	-24.758375
1131.215728	-24.249968
1131.642734	-23.758245
1132.070063	-23.280002
1132.497714	-22.813276
1132.925689	-22.357140
1133.353987	-21.911467
1133.782610	-21.476644
1134.211556	-21.053347
1134.640827	-20.642429
1135.070424	-20.244827
1135.500345	-19.861448
1135.930593	-19.493033
1136.361166	-19.140051
1136.792067	-18.802660
1137.223294	-18.480719
1137.654848	-18.173838
1138.086730	-17.881432
1138.518940	-17.602728
1138.951479	-17.336730
1139.384346	-17.082220
1139.817543	-16.837829
1140.251069	-16.602139
1140.684925	-16.373772
1141.119111	-16.151423
1141.553628	-15.933846
1141.988475	-15.719861
1142.423655	-15.508385
1142.859166	-15.298513
1143.295009	-15.089580
1143.731185	-14.881190
1144.167694	-14.673193
1144.604536	-14.465618
1145.041711	-14.258617
1145.479221	-14.052458
1145.917065	-13.847542
1146.355245	-13.644405
1146.793759	-13.443675
1147.232609	-13.246006
1147.671795	-13.052008
1148.111317	-12.862209
1148.551177	-12.677038
1148.991373	-12.496857
1149.431907	-12.321997
1149.872779	-12.152752
1150.313989	-11.989338
1150.755538	-11.831849
1151.197426	-11.680258
1151.639653	-11.534445
1152.082220	-11.394231
1152.525128	-11.259408
1152.968376	-11.129761
1153.411966	-11.005064
1153.855897	-10.885044
1154.300169	-10.769373
1154.744784	-10.657674
1155.189742	-10.549560
1155.635042	-10.444663
1156.080687	-10.342645
1156.526674	-10.243195
1156.973007	-10.146033
1157.419683	-10.050879
1157.866705	-9.957448
1158.314072	-9.865466
1158.761786	-9.774699
1159.209845	-9.684964
1159.658251	-9.596139
1160.107004	-9.508172
1160.556104	-9.421062
1161.005553	-9.334838
1161.455349	-9.249547
1161.905494	-9.165268
1162.355989	-9.082130
1162.806832	-9.000308
1163.258026	-8.920018
1163.709570	-8.841512
1164.161464	-8.765063
1164.613710	-8.690928
1165.066307	-8.619337
1165.519256	-8.550486
1165.972558	-8.484546
1166.426212	-8.421653
1166.880219	-8.361903
1167.334580	-8.305363
1167.789295	-8.252071
1168.244364	-8.202022
1168.699788	-8.155172
1169.155567	-8.111443
1169.611702	-8.070729
1170.068193	-8.032912
1170.525041	-7.997872
1170.982245	-7.965506
1171.439807	-7.935720
1171.897726	-7.908421
1172.356004	-7.883526
1172.814640	-7.860964
1173.273635	-7.840667
1173.732989	-7.822563
1174.192703	-7.806590
1174.652778	-7.792696
1175.113213	-7.780836
1175.574009	-7.770977
1176.035167	-7.763107
1176.496687	-7.757214
1176.958569	-7.753278
1177.420814	-7.751279
1177.883422	-7.751188
1178.346394	-7.752952
1178.809730	-7.756509
1179.273430	-7.761792
1179.737496	-7.768734
1180.201927	-7.777256
1180.666723	-7.787287
1181.131886	-7.798780
1181.597416	-7.811684
1182.063312	-7.825954
1182.529576	-7.841564
1182.996209	-7.858502
1183.463209	-7.876756
1183.930579	-7.896321
1184.398317	-7.917220
1184.866426	-7.939480
1185.334904	-7.963139
1185.803754	-7.988259
1186.272974	-8.014933
1186.742566	-8.043260
1187.212529	-8.073343
1187.682865	-8.105321
1188.153574	-8.139329
1188.624656	-8.175504
1189.096112	-8.213986
1189.567942	-8.254909
1190.040147	-8.298387
1190.512726	-8.344510
1190.985681	-8.393356
1191.459012	-8.444977
1191.932720	-8.499394
1192.406804	-8.556616
1192.881265	-8.616630
1193.356104	-8.679392
1193.831322	-8.744855
1194.306918	-8.812961
1194.782893	-8.883626
1195.259248	-8.956759
1195.735982	-9.032281
1196.213097	-9.110111
1196.690593	-9.190160
1197.168471	-9.272350
1197.646730	-9.356609
1198.125371	-9.442872
1198.604395	-9.531077
1199.083803	-9.621177
1199.563594	-9.713127
1200.043769	-9.806877
1200.524329	-9.902379
1201.005273	-9.999587
1201.486604	-10.098445
1201.968320	-10.198892
1202.450422	-10.300865
1202.932912	-10.404295
1203.415789	-10.509112
1203.899054	-10.615238
1204.382707	-10.722587
1204.866748	-10.831085
1205.351179	-10.940676
1205.836000	-11.051297
1206.321211	-11.162895
1206.806812	-11.275439
1207.292805	-11.388895
1207.779189	-11.503253
1208.265965	-11.618508
1208.753134	-11.734654
1209.240696	-11.851689
1209.728651	-11.969624
1210.217000	-12.088475
1210.705744	-12.208241
1211.194883	-12.328932
1211.684417	-12.450559
1212.174347	-12.573135
1212.664673	-12.696668
1213.155396	-12.821169
1213.646516	-12.946650
1214.138034	-13.073141
1214.629951	-13.200656
1215.122266	-13.329216
1215.614980	-13.458847
1216.108095	-13.589546
1216.601609	-13.721317
1217.095524	-13.854177
1217.589841	-13.988089
1218.084559	-14.123011
1218.579679	-14.258916
1219.075202	-14.395744
1219.571128	-14.533419
1220.067458	-14.671871
1220.564191	-14.811009
1221.061330	-14.950751
1221.558874	-15.091020
1222.056823	-15.231710
1222.555178	-15.372723
1223.053940	-15.513957
1223.553109	-15.655284
1224.052686	-15.796544
1224.552671	-15.937589
1225.053065	-16.078217
1225.553867	-16.218210
1226.055079	-16.357352
1226.556702	-16.495374
1227.058735	-16.632017
1227.561179	-16.767035
1228.064035	-16.900152
1228.567303	-17.031142
1229.070983	-17.159829
1229.575077	-17.286006
1230.079585	-17.409516
1230.584506	-17.530240
1231.089842	-17.648039
1231.595594	-17.762785
1232.101761	-17.874371
1232.608345	-17.982683
1233.115345	-18.087598
1233.622762	-18.188995
1234.130597	-18.286752
1234.638851	-18.380786
1235.147523	-18.471033
1235.656615	-18.557425
1236.166126	-18.639964
1236.676058	-18.718673
1237.186411	-18.793561
1237.697185	-18.864684
1238.208381	-18.932108
1238.719999	-18.995840
1239.232040	-19.055884
1239.744505	-19.112218
1240.257394	-19.164810
1240.770708	-19.213642
1241.284446	-19.258692
1241.798610	-19.299942
1242.313201	-19.337426
1242.828218	-19.371208
1243.343662	-19.401423
1243.859534	-19.428236
1244.375834	-19.451819
1244.892563	-19.472409
1245.409721	-19.490205
1245.927309	-19.505388
1246.445327	-19.518201
1246.963777	-19.528846
1247.482657	-19.537468
1248.001970	-19.544250
1248.521716	-19.549419
1249.041894	-19.553165
1249.562506	-19.555735
1250.083553	-19.557430
1250.605034	-19.558505
1251.126950	-19.559228
1251.649302	-19.559896
1252.172091	-19.560723
1252.695316	-19.561885
1253.218979	-19.563532
1253.743079	-19.565713
1254.267619	-19.568459
1254.792597	-19.571790
1255.318015	-19.575709
1255.843874	-19.580245
1256.370173	-19.585396
1256.896913	-19.591194
1257.424095	-19.597697
1257.951720	-19.604928
1258.479787	-19.612945
1259.008298	-19.621791
1259.537254	-19.631391
1260.066654	-19.641659
1260.596499	-19.652495
1261.126790	-19.663822
1261.657527	-19.675587
1262.188711	-19.687731
1262.720342	-19.700255
1263.252422	-19.713218
1263.784950	-19.726722
1264.317928	-19.740888
1264.851355	-19.755875
1265.385232	-19.771766
1265.919560	-19.788566
1266.454340	-19.806235
1266.989572	-19.824736
1267.525256	-19.844017
1268.061394	-19.864023
1268.597985	-19.884744
1269.135031	-19.906232
1269.672531	-19.928568
1270.210487	-19.951836
1270.748899	-19.976111
1271.287768	-20.001388
1271.827094	-20.027590
1272.366877	-20.054634
1272.907119	-20.082352
1273.447820	-20.110527
1273.988981	-20.139020
1274.530601	-20.167743
1275.072683	-20.196706
1275.615226	-20.225973
1276.158230	-20.255587
1276.701697	-20.285661
1277.245627	-20.316224
1277.790021	-20.347203
1278.334879	-20.378551
1278.880202	-20.410187
1279.425991	-20.441992
1279.972245	-20.473954
1280.518966	-20.506203
1281.066155	-20.538835
1281.613811	-20.572097
1282.161936	-20.606233
1282.710529	-20.641361
1283.259593	-20.677581
1283.809126	-20.714904
1284.359131	-20.753305
1284.909607	-20.792675
1285.460555	-20.832999
1286.011976	-20.874351
1286.563870	-20.916787
1287.116237	-20.960492
1287.669080	-21.005581
1288.222397	-21.052187
1288.776191	-21.100293
1289.330460	-21.149803
1289.885207	-21.200605
1290.440431	-21.252428
1290.996133	-21.305187
1291.552314	-21.358849
1292.108975	-21.413407
1292.666115	-21.468892
1293.223737	-21.525453
1293.781839	-21.583171
1294.340424	-21.641951
1294.899491	-21.701712
1295.459041	-21.762275
1296.019075	-21.823439
1296.579593	-21.885168
1297.140597	-21.947502
1297.702086	-22.010531
1298.264061	-22.074439
1298.826524	-22.139449
1299.389474	-22.205651
1299.952912	-22.273082
1300.516839	-22.341707
1301.081255	-22.411411
1301.646162	-22.482058
1302.211559	-22.553798
1302.777448	-22.626802
1303.343829	-22.701194
1303.910702	-22.777245
1304.478069	-22.855161
1305.045930	-22.934933
1305.614285	-23.016422
1306.183136	-23.099499
1306.752483	-23.183998
1307.322326	-23.269921
1307.892666	-23.357337
1308.463504	-23.446355
1309.034841	-23.537200
1309.606677	-23.630101
1310.179012	-23.724980
1310.751849	-23.821668
1311.325186	-23.919968
1311.899025	-24.019567
1312.473366	-24.120411
1313.048211	-24.222514
1313.623559	-24.325935
1314.199412	-24.430873
1314.775770	-24.537527
1315.352634	-24.645809
1315.930004	-24.755571
1316.507881	-24.866513
1317.086266	-24.978280
1317.665159	-25.090859
1318.244562	-25.204388
1318.824474	-25.319017
1319.404897	-25.434998
1319.985831	-25.552625
1320.567276	-25.671759
1321.149234	-25.792144
1321.731706	-25.913431
1322.314691	-26.035279
1322.898190	-26.157480
1323.482205	-26.280096
1324.066736	-26.403314
1324.651783	-26.527442
1325.237347	-26.652553
1325.823430	-26.778331
1326.410031	-26.904516
1326.997151	-27.030555
1327.584791	-27.155965
1328.172952	-27.280579
1328.761634	-27.404484
1329.350839	-27.527955
1329.940566	-27.651206
1330.530817	-27.774214
1331.121592	-27.896414
1331.712891	-28.017202
1332.304716	-28.135828
1332.897068	-28.251827
1333.489946	-28.365202
1334.083352	-28.476180
1334.677287	-28.585157
1335.271750	-28.692458
1335.866744	-28.797831
1336.462268	-28.900833
1337.058323	-29.000627
1337.654910	-29.096598
1338.252029	-29.188733
1338.849682	-29.277223
1339.447869	-29.362533
1340.046591	-29.444872
1340.645848	-29.524265
1341.245641	-29.600294
1341.845972	-29.672118
1342.446840	-29.739057
1343.048246	-29.800901
1343.650191	-29.858206
1344.252677	-29.911625
1344.855702	-29.961478
1345.459269	-30.007864
1346.063379	-30.050073
1346.668030	-30.087307
1347.273226	-30.118746
1347.878965	-30.144303
1348.485250	-30.164654
1349.092080	-30.180670
1349.699456	-30.193148
1350.307380	-30.202202
1350.915851	-30.207544
1351.524871	-30.208413
1352.134441	-30.204336
1352.744560	-30.195702
1353.355231	-30.183188
1353.966453	-30.167616
1354.578227	-30.149433
1355.190555	-30.128623
1355.803436	-30.104355
1356.416872	-30.075714
1357.030863	-30.042565
1357.645411	-30.005196
1358.260515	-29.964761
1358.876177	-29.922047
1359.492397	-29.877777
1360.109176	-29.831885
1360.726516	-29.784070
1361.344416	-29.734220
1361.962877	-29.682614
1362.581901	-29.630396
1363.201487	-29.578641
1363.821637	-29.527924
1364.442352	-29.477974
1365.063632	-29.428165
1365.685478	-29.377434
1366.307891	-29.325039
1366.930871	-29.270941
1367.554420	-29.215432
1368.178538	-29.158919
1368.803226	-29.101154
1369.428485	-29.041864
1370.054315	-28.980585
1370.680717	-28.917572
1371.307693	-28.853802
1371.935242	-28.790816
1372.563366	-28.730185
1373.192065	-28.672809
1373.821341	-28.619025
1374.451193	-28.568228
1375.081623	-28.519970
1375.712632	-28.473999
1376.344221	-28.430216
1376.976389	-28.388208
1377.609139	-28.346943
1378.242470	-28.305025
1378.876384	-28.260628
1379.510881	-28.212545
1380.145963	-28.160794
1380.781629	-28.106311
1381.417881	-28.050795
1382.054720	-27.995748
1382.692147	-27.942417
1383.330161	-27.891725
1383.968765	-27.844345
1384.607959	-27.801386
1385.247743	-27.763767
1385.888119	-27.732070
1386.529087	-27.705853
1387.170648	-27.683384
1387.812804	-27.662418
1388.455554	-27.640452
1389.098899	-27.615497
1389.742842	-27.586189
1390.387381	-27.551865
1391.032519	-27.512177
1391.678256	-27.467045
1392.324592	-27.417053
1392.971529	-27.363299
1393.619068	-27.307375
1394.267208	-27.250740
1394.915952	-27.194387
1395.565300	-27.138601
1396.215253	-27.083216
1396.865812	-27.027783
1397.516977	-26.971893
