# 2022-03-22_00.28.03
# shape = sech2
# FWHM_ps = 0.1
# carrier_nm = 1542
# frep_MHz = 12126
# pow_mW = 8000
# GDD = 0.0
# propa_len = 0.13933333333333334
# untap_len = 0.01
# taper_len = 0.07933333333333334
# waist_len = 0.02
# uptap_len = 0.02
# untap_scale = 1.0
# waist_scale = 0.22631578947368425
# workingDir = NL_20110305_12 (Spirou)
# axis = slow
# window_ps = 10.0
# steps = 200
# points = 21700
# 
# wavelength [nm]	 power spectral density [dB]
600.043425	-88.351330
600.163550	-88.620219
600.283723	-88.575371
600.403943	-88.277467
600.524212	-87.865673
600.644529	-87.479390
600.764895	-87.185393
600.885308	-86.990553
601.005770	-86.880899
601.126280	-86.838267
601.246839	-86.838594
601.367446	-86.875370
601.488101	-86.911452
601.608804	-86.912867
601.729557	-86.855107
601.850357	-86.706106
601.971206	-86.468217
602.092104	-86.193474
602.213050	-85.934676
602.334045	-85.736107
602.455089	-85.631288
602.576181	-85.636071
602.697322	-85.767715
602.818511	-86.011397
602.939749	-86.356472
603.061036	-86.782760
603.182372	-87.250634
603.303757	-87.705514
603.425191	-88.066672
603.546673	-88.280466
603.668204	-88.357279
603.789785	-88.318505
603.911414	-88.239820
604.033092	-88.221486
604.154820	-88.323890
604.276596	-88.565461
604.398422	-88.965640
604.520297	-89.522104
604.642220	-90.204929
604.764193	-90.964743
604.886216	-91.759415
605.008287	-92.580139
605.130408	-93.399303
605.252578	-94.224182
605.374798	-94.971557
605.497066	-95.659156
605.619385	-96.291998
605.741752	-96.969019
605.864169	-97.983559
605.986636	-99.626747
606.109152	-102.349649
606.231718	-106.814685
606.354333	-110.684832
606.476998	-105.186434
606.599712	-100.616644
606.722476	-97.771177
606.845290	-95.918034
606.968154	-94.699638
607.091067	-93.889560
607.214030	-93.334847
607.337043	-92.924534
607.460106	-92.560101
607.583219	-92.134099
607.706381	-91.652938
607.829594	-91.116504
607.952856	-90.534034
608.076169	-89.941962
608.199531	-89.376856
608.322944	-88.879299
608.446407	-88.473632
608.569920	-88.187985
608.693483	-88.035587
608.817096	-87.989158
608.940759	-88.019628
609.064473	-88.095039
609.188237	-88.155473
609.312051	-88.104933
609.435916	-87.900341
609.559831	-87.549156
609.683796	-87.099105
609.807812	-86.620355
609.931878	-86.174587
610.055995	-85.810957
610.180162	-85.540138
610.304380	-85.359034
610.428648	-85.253070
610.552967	-85.211931
610.677337	-85.226607
610.801757	-85.293723
610.926228	-85.428344
611.050750	-85.631286
611.175323	-85.875509
611.299946	-86.132905
611.424620	-86.343450
611.549345	-86.438352
611.674121	-86.381964
611.798948	-86.170527
611.923826	-85.869757
612.048755	-85.549339
612.173734	-85.273532
612.298765	-85.063642
612.423847	-84.943381
612.548980	-84.914694
612.674165	-84.961043
612.799400	-85.062231
612.924687	-85.219328
613.050025	-85.435001
613.175414	-85.698105
613.300854	-85.983833
613.426346	-86.232055
613.551889	-86.385076
613.677484	-86.399349
613.803130	-86.274979
613.928827	-86.033282
614.054576	-85.726226
614.180377	-85.416713
614.306229	-85.148893
614.432132	-84.938353
614.558087	-84.789158
614.684094	-84.706029
614.810153	-84.706632
614.936263	-84.778756
615.062425	-84.935227
615.188639	-85.167524
615.314904	-85.472263
615.441222	-85.821043
615.567591	-86.194223
615.694012	-86.558613
615.820486	-86.903118
615.947011	-87.260045
616.073588	-87.677691
616.200217	-88.205601
616.326898	-88.900612
616.453632	-89.775023
616.580417	-90.879475
616.707255	-92.244903
616.834144	-93.914641
616.961086	-95.914602
617.088081	-98.347095
617.215127	-101.430237
617.342226	-105.733058
617.469378	-113.136034
617.596581	-116.576199
617.723837	-107.387332
617.851146	-102.908244
617.978507	-100.126138
618.105920	-98.144507
618.233386	-96.575663
618.360905	-95.224020
618.488476	-94.006586
618.616100	-92.861384
618.743777	-91.802804
618.871506	-90.871132
618.999288	-90.146541
619.127123	-89.615238
619.255011	-89.325364
619.382951	-89.238633
619.510945	-89.313007
619.638991	-89.465828
619.767090	-89.701765
619.895243	-89.983635
620.023448	-90.308694
620.151706	-90.665774
620.280017	-91.038677
620.408382	-91.364206
620.536799	-91.592866
620.665270	-91.703356
620.793794	-91.744647
620.922371	-91.778837
621.051002	-91.886950
621.179686	-92.109615
621.308423	-92.425664
621.437213	-92.788332
621.566057	-93.133892
621.694954	-93.369386
621.823905	-93.376479
621.952909	-93.167620
622.081967	-92.766134
622.211079	-92.212143
622.340244	-91.582428
622.469462	-90.895566
622.598735	-90.120204
622.728061	-89.234723
622.857441	-88.267397
622.986874	-87.220143
623.116361	-86.176156
623.245903	-85.204575
623.375498	-84.366472
623.505147	-83.665613
623.634850	-83.111903
623.764606	-82.692701
623.894417	-82.388867
624.024282	-82.189955
624.154201	-82.091115
624.284174	-82.083741
624.414202	-82.155354
624.544283	-82.295509
624.674419	-82.486225
624.804609	-82.696877
624.934853	-82.905565
625.065151	-83.072632
625.195504	-83.189674
625.325911	-83.275784
625.456373	-83.371598
625.586889	-83.501910
625.717460	-83.694963
625.848085	-83.951318
625.978764	-84.267834
626.109498	-84.612551
626.240287	-84.967440
626.371131	-85.309998
626.502029	-85.617953
626.632982	-85.876119
626.763989	-86.079020
626.895052	-86.218940
627.026169	-86.325735
627.157341	-86.467731
627.288568	-86.712266
627.419850	-87.129147
627.551187	-87.764160
627.682579	-88.658983
627.814026	-89.807845
627.945528	-91.177407
628.077085	-92.735365
628.208697	-94.291111
628.340364	-95.444393
628.472087	-95.547576
628.603865	-94.515795
628.735698	-92.960849
628.867586	-91.416660
628.999530	-90.063042
629.131529	-88.910616
629.263584	-87.920343
629.395694	-87.051689
629.527859	-86.286751
629.660080	-85.639030
629.792357	-85.138306
629.924689	-84.807466
630.057077	-84.655287
630.189520	-84.657760
630.322019	-84.754421
630.454574	-84.901780
630.587184	-85.065622
630.719851	-85.249903
630.852573	-85.468995
630.985351	-85.761976
631.118185	-86.154362
631.251075	-86.648114
631.384021	-87.221875
631.517023	-87.846966
631.650081	-88.482506
631.783195	-89.135483
631.916365	-89.792989
632.049592	-90.455997
632.182874	-91.104641
632.316213	-91.712758
632.449608	-92.275037
632.583059	-92.712158
632.716567	-92.919079
632.850131	-92.831638
632.983751	-92.466321
633.117428	-91.898839
633.251161	-91.198176
633.384951	-90.428373
633.518797	-89.644705
633.652700	-88.841404
633.786660	-88.038392
633.920676	-87.248583
634.054749	-86.517916
634.188879	-85.860884
634.323065	-85.294627
634.457308	-84.794765
634.591608	-84.314901
634.725965	-83.819497
634.860379	-83.315330
634.994850	-82.817062
635.129377	-82.368426
635.263962	-81.997210
635.398604	-81.710828
635.533303	-81.496001
635.668058	-81.349342
635.802872	-81.265131
635.937742	-81.257966
636.072669	-81.351177
636.207654	-81.571978
636.342696	-81.916503
636.477796	-82.333715
636.612953	-82.780761
636.748167	-83.245284
636.883439	-83.742953
637.018768	-84.305716
637.154155	-84.892183
637.289599	-85.389299
637.425101	-85.597968
637.560660	-85.376409
637.696277	-84.755821
637.831952	-83.934645
637.967685	-83.040805
638.103475	-82.185177
638.239324	-81.401143
638.375230	-80.703585
638.511194	-80.101786
638.647215	-79.621583
638.783295	-79.271191
638.919433	-79.044404
639.055629	-78.905331
639.191883	-78.816673
639.328195	-78.742382
639.464565	-78.668721
639.600994	-78.609314
639.737481	-78.579321
639.874025	-78.590407
640.010629	-78.632210
640.147290	-78.687678
640.284010	-78.754318
640.420789	-78.841563
640.557625	-78.950808
640.694521	-79.085344
640.831474	-79.245116
640.968487	-79.417773
641.105558	-79.571411
641.242687	-79.674915
641.379876	-79.717693
641.517123	-79.691852
641.654429	-79.597992
641.791793	-79.453773
641.929216	-79.279235
642.066699	-79.086028
642.204240	-78.859214
642.341840	-78.596931
642.479499	-78.306436
642.617217	-78.011657
642.754994	-77.729079
642.892830	-77.479780
643.030726	-77.260978
643.168680	-77.054115
643.306694	-76.848358
643.444767	-76.633821
643.582899	-76.416127
643.721091	-76.201982
643.859342	-75.997802
643.997652	-75.797805
644.136022	-75.602994
644.274451	-75.407348
644.412940	-75.217043
644.551488	-75.037506
644.690096	-74.883102
644.828763	-74.756622
644.967490	-74.661083
645.106277	-74.595460
645.245124	-74.562047
645.384030	-74.566586
645.522997	-74.619366
645.662023	-74.740465
645.801109	-74.944358
645.940255	-75.239576
646.079460	-75.622764
646.218726	-76.083552
646.358052	-76.628333
646.497438	-77.273584
646.636884	-78.037755
646.776391	-78.932829
646.915957	-79.971813
647.055584	-81.121782
647.195271	-82.329593
647.335019	-83.553925
647.474826	-84.780150
647.614695	-85.945348
647.754623	-86.885825
647.894612	-87.428968
648.034662	-87.551029
648.174772	-87.417996
648.314943	-87.238197
648.455174	-87.138570
648.595466	-87.126937
648.735819	-87.151045
648.876233	-87.116926
649.016707	-86.969520
649.157242	-86.681186
649.297838	-86.271634
649.438495	-85.756612
649.579213	-85.166605
649.719992	-84.540512
649.860832	-83.915352
650.001733	-83.321470
650.142695	-82.814558
650.283718	-82.436927
650.424803	-82.187412
650.565949	-82.062769
650.707156	-82.044075
650.848424	-82.091562
650.989754	-82.137258
651.131145	-82.167752
651.272597	-82.171529
651.414111	-82.135584
651.555687	-82.011474
651.697324	-81.741245
651.839022	-81.281035
651.980782	-80.694965
652.122604	-80.065207
652.264488	-79.491836
652.406433	-78.991677
652.548441	-78.557482
652.690510	-78.161939
652.832640	-77.802816
652.974833	-77.494757
653.117088	-77.245556
653.259405	-77.054732
653.401784	-76.917736
653.544224	-76.821947
653.686727	-76.756530
653.829293	-76.743948
653.971920	-76.818507
654.114609	-77.002624
654.257361	-77.306378
654.400175	-77.728006
654.543052	-78.260093
654.685991	-78.888376
654.828992	-79.592061
654.972056	-80.356568
655.115183	-81.169171
655.258372	-82.015579
655.401623	-82.854878
655.544937	-83.636042
655.688314	-84.292756
655.831754	-84.751633
655.975256	-84.979130
656.118822	-84.970122
656.262450	-84.756454
656.406141	-84.395758
656.549894	-83.956625
656.693711	-83.495449
656.837591	-83.091253
656.981534	-82.801133
657.125540	-82.647332
657.269610	-82.580201
657.413742	-82.553659
657.557938	-82.497445
657.702196	-82.385473
657.846519	-82.203257
657.990904	-82.018106
658.135353	-81.803356
658.279866	-81.522935
658.424441	-81.188561
658.569081	-80.865473
658.713784	-80.615423
658.858550	-80.475439
659.003381	-80.458245
659.148274	-80.486926
659.293232	-80.520890
659.438253	-80.548451
659.583339	-80.596938
659.728488	-80.603008
659.873701	-80.498587
660.018978	-80.238331
660.164318	-79.819993
660.309723	-79.343214
660.455192	-78.905513
660.600725	-78.554907
660.746323	-78.264692
660.891984	-78.027675
661.037710	-77.832396
661.183500	-77.669136
661.329354	-77.497374
661.475272	-77.306317
661.621255	-77.086675
661.767303	-76.860522
661.913415	-76.679389
662.059591	-76.610491
662.205833	-76.675467
662.352138	-76.855747
662.498509	-77.155111
662.644944	-77.574932
662.791443	-78.120639
662.938008	-78.836036
663.084638	-79.773051
663.231332	-80.940246
663.378091	-82.302771
663.524915	-83.818258
663.671804	-85.386231
663.818759	-86.794623
663.965778	-87.689468
664.112863	-87.672186
664.260012	-86.698312
664.407227	-85.156570
664.554507	-83.464559
664.701853	-81.836277
664.849264	-80.352643
664.996740	-79.072842
665.144282	-78.018426
665.291889	-77.178358
665.439561	-76.535876
665.587300	-76.069285
665.735103	-75.769769
665.882973	-75.632148
666.030908	-75.675665
666.178909	-75.893433
666.326976	-76.278107
666.475109	-76.794843
666.623307	-77.387775
666.771571	-77.977485
666.919902	-78.506910
667.068298	-78.928210
667.216761	-79.220419
667.365289	-79.398230
667.513884	-79.535239
667.662545	-79.726960
667.811272	-80.036456
667.960065	-80.467403
668.108925	-80.939747
668.257851	-81.356650
668.406843	-81.725617
668.555902	-82.100618
668.705027	-82.440696
668.854219	-82.561355
669.003478	-82.270476
669.152803	-81.593083
669.302195	-80.743503
669.451653	-79.836873
669.601179	-78.884550
669.750771	-77.919154
669.900430	-76.986854
670.050156	-76.135768
670.199949	-75.406490
670.349808	-74.798339
670.499735	-74.299149
670.649729	-73.933088
670.799790	-73.736020
670.949918	-73.736178
671.100114	-73.959438
671.250377	-74.429919
671.400707	-75.151563
671.551104	-76.156687
671.701569	-77.533749
671.852101	-79.410680
672.002700	-82.037047
672.153368	-85.968513
672.304102	-92.591077
672.454905	-96.433548
672.605775	-89.267475
672.756713	-85.306087
672.907718	-82.987077
673.058791	-81.581272
673.209933	-80.818263
673.361142	-80.530503
673.512419	-80.549921
673.663764	-80.685481
673.815177	-80.713801
673.966658	-80.481640
674.118207	-79.951591
674.269825	-79.170170
674.421510	-78.200216
674.573264	-77.162515
674.725086	-76.191644
674.876977	-75.398837
675.028936	-74.825154
675.180963	-74.467789
675.333059	-74.293524
675.485224	-74.278407
675.637457	-74.402016
675.789758	-74.648420
675.942129	-74.981203
676.094568	-75.357679
676.247075	-75.726256
676.399652	-76.011995
676.552298	-76.160565
676.705012	-76.121479
676.857795	-75.854320
677.010648	-75.403582
677.163569	-74.871859
677.316560	-74.349009
677.469619	-73.907478
677.622748	-73.563724
677.775946	-73.322096
677.929214	-73.193983
678.082551	-73.194006
678.235957	-73.334922
678.389432	-73.633341
678.542977	-74.100093
678.696592	-74.756617
678.850276	-75.647154
679.004030	-76.817349
679.157853	-78.338304
679.311746	-80.289068
679.465709	-82.755555
679.619742	-85.739987
679.773844	-88.434894
679.928017	-88.187935
680.082259	-85.609717
680.236571	-83.120737
680.390954	-81.176887
680.545406	-79.640414
680.699929	-78.331371
680.854522	-77.128243
681.009185	-76.005485
681.163918	-74.964715
681.318722	-74.012250
681.473596	-73.168692
681.628540	-72.447602
681.783555	-71.862382
681.938641	-71.422309
682.093797	-71.135969
682.249023	-71.010484
682.404321	-71.073681
682.559689	-71.356828
682.715128	-71.893579
682.870637	-72.718755
683.026218	-73.867218
683.181869	-75.389884
683.337591	-77.323698
683.493385	-79.598068
683.649249	-81.641931
683.805185	-82.009905
683.961191	-80.540579
684.117269	-78.675641
684.273418	-77.122724
684.429639	-75.974022
684.585930	-75.185346
684.742294	-74.708567
684.898728	-74.507423
685.055234	-74.526189
685.211812	-74.680595
685.368461	-74.836081
685.525182	-74.850761
685.681975	-74.654576
685.838839	-74.275666
685.995775	-73.802042
686.152783	-73.321086
686.309863	-72.898661
686.467014	-72.588249
686.624238	-72.434983
686.781534	-72.475633
686.938902	-72.727061
687.096342	-73.203377
687.253854	-73.903975
687.411438	-74.807896
687.569095	-75.835681
687.726824	-76.790671
687.884626	-77.333143
688.042499	-77.206273
688.200446	-76.480811
688.358465	-75.503807
688.516556	-74.552539
688.674720	-73.758524
688.832957	-73.169728
688.991266	-72.794257
689.149649	-72.623896
689.308104	-72.645184
689.466632	-72.814964
689.625233	-73.079336
689.783906	-73.356062
689.942653	-73.569522
690.101473	-73.654689
690.260367	-73.579856
690.419333	-73.340596
690.578372	-72.982093
690.737485	-72.569990
690.896672	-72.202597
691.055931	-71.964008
691.215264	-71.909625
691.374671	-72.063696
691.534151	-72.421111
691.693704	-72.988170
691.853332	-73.783737
692.013033	-74.830351
692.172807	-76.168142
692.332656	-77.811484
692.492578	-79.743904
692.652575	-81.828381
692.812645	-83.620996
692.972789	-84.428726
693.133007	-84.245324
693.293300	-83.902484
693.453666	-84.075107
693.614107	-85.113079
693.774622	-87.481511
693.935211	-92.718819
694.095875	-112.988083
694.256613	-89.667875
694.417426	-83.244897
694.578313	-79.290866
694.739274	-76.490891
694.900311	-74.385207
695.061421	-72.764080
695.222607	-71.507625
695.383868	-70.546818
695.545203	-69.843098
695.706613	-69.360621
695.868098	-69.081837
696.029658	-68.996559
696.191293	-69.108230
696.353003	-69.417364
696.514789	-69.928391
696.676649	-70.626649
696.838585	-71.497479
697.000596	-72.527468
697.162682	-73.718660
697.324844	-75.084070
697.487081	-76.629235
697.649394	-78.346189
697.811782	-80.147819
697.974246	-81.665953
698.136786	-82.089164
698.299401	-80.982598
698.462092	-79.025042
698.624859	-76.940657
698.787702	-75.047682
698.950621	-73.438438
699.113616	-72.132143
699.276686	-71.112762
699.439833	-70.346867
699.603056	-69.803376
699.766355	-69.467250
699.929731	-69.337242
700.093183	-69.415366
700.256711	-69.708927
700.420315	-70.207882
700.583996	-70.902849
700.747754	-71.762709
700.911588	-72.735212
701.075499	-73.734352
701.239486	-74.659527
701.403550	-75.437941
701.567691	-76.048416
701.731909	-76.505226
701.896203	-76.823710
702.060575	-77.035769
702.225024	-77.170458
702.389549	-77.224506
702.554152	-77.121135
702.718832	-76.760547
702.883589	-76.135684
703.048424	-75.376088
703.213335	-74.679496
703.378324	-74.194563
703.543391	-74.010552
703.708535	-74.152481
703.873757	-74.613539
704.039056	-75.356182
704.204433	-76.269711
704.369887	-77.007083
704.535420	-76.953327
704.701030	-75.839964
704.866718	-74.177227
705.032484	-72.518352
705.198328	-71.113614
705.364250	-70.026048
705.530250	-69.258953
705.696328	-68.794903
705.862485	-68.610516
706.028720	-68.677488
706.195033	-68.971612
706.361424	-69.460486
706.527894	-70.096841
706.694442	-70.776894
706.861069	-71.357427
707.027775	-71.704454
707.194559	-71.822774
707.361422	-71.858040
707.528363	-72.000103
707.695384	-72.393639
707.862483	-73.106989
708.029661	-74.103625
708.196918	-75.178771
708.364254	-75.750816
708.531670	-75.057701
708.699164	-73.222768
708.866738	-71.097378
709.034391	-69.220854
709.202123	-67.741717
709.369935	-66.663044
709.537826	-65.955587
709.705796	-65.580080
709.873847	-65.511950
710.041976	-65.722467
710.210186	-66.190328
710.378475	-66.857160
710.546844	-67.615645
710.715292	-68.247110
710.883821	-68.475831
711.052429	-68.147392
711.221118	-67.420995
711.389887	-66.599203
711.558735	-65.907305
711.727664	-65.444866
711.896673	-65.237418
712.065763	-65.283818
712.234932	-65.575278
712.404183	-66.103441
712.573513	-66.836990
712.742924	-67.686565
712.912416	-68.472858
713.081988	-69.004629
713.251641	-69.209819
713.421375	-69.212181
713.591190	-69.228048
713.761085	-69.436737
713.931061	-69.969755
714.101119	-70.908978
714.271257	-72.271629
714.441476	-73.756464
714.611777	-74.155632
714.782159	-72.472290
714.952622	-69.938332
715.123166	-67.668712
715.293792	-65.895047
715.464499	-64.579690
715.635288	-63.638442
715.806158	-63.000638
715.977110	-62.610267
716.148143	-62.428442
716.319259	-62.416254
716.490456	-62.529129
716.661735	-62.709309
716.833096	-62.881261
717.004538	-62.978683
717.176063	-62.982723
717.347670	-62.941551
717.519359	-62.925681
717.691130	-62.987096
717.862984	-63.155554
718.034920	-63.454604
718.206938	-63.893092
718.379039	-64.456020
718.551222	-65.089946
718.723488	-65.704402
718.895836	-66.193903
719.068267	-66.501646
719.240781	-66.663462
719.413377	-66.788195
719.586057	-66.985440
719.758819	-67.304691
719.931664	-67.723599
720.104593	-68.129075
720.277604	-68.301122
720.450699	-67.983953
720.623876	-67.125779
720.797137	-65.951429
720.970482	-64.744188
721.143910	-63.684911
721.317421	-62.846652
721.491016	-62.233352
721.664694	-61.810714
721.838456	-61.531107
722.012302	-61.357864
722.186231	-61.268330
722.360244	-61.238231
722.534342	-61.236801
722.708523	-61.250059
722.882788	-61.303430
723.057137	-61.459233
723.231570	-61.787818
723.406088	-62.342750
723.580689	-63.157402
723.755375	-64.240854
723.930146	-65.545639
724.105000	-66.865604
724.279940	-67.722950
724.454963	-67.623278
724.630072	-66.708952
724.805265	-65.571139
724.980543	-64.612510
725.155905	-63.966312
725.331353	-63.640903
725.506885	-63.582345
725.682503	-63.681570
725.858205	-63.786339
726.033993	-63.739350
726.209865	-63.442896
726.385823	-62.933812
726.561866	-62.339017
726.737995	-61.801947
726.914209	-61.437570
727.090508	-61.317896
727.266893	-61.470755
727.443364	-61.871171
727.619920	-62.445055
727.796562	-63.053085
727.973290	-63.507558
728.150103	-63.633760
728.327003	-63.401264
728.503988	-62.955785
728.681060	-62.512164
728.858218	-62.239770
729.035461	-62.232890
729.212791	-62.510983
729.390208	-63.012573
