# 2022-03-22_10.10.30
# shape = sech2
# FWHM_ps = 0.11
# carrier_nm = 1542
# frep_MHz = 12126
# pow_mW = 8000
# GDD = 0.0
# propa_len = 0.11866666666666668
# untap_len = 0.01
# taper_len = 0.05866666666666667
# waist_len = 0.02
# uptap_len = 0.02
# untap_scale = 1.0
# waist_scale = 0.368421052631579
# workingDir = NL_20110305_12 (Spirou)
# axis = slow
# window_ps = 10.0
# steps = 200
# points = 21700
# 
# wavelength [nm]	 power spectral density [dB]
600.043425	-137.984655
600.163550	-137.926004
600.283723	-137.886070
600.403943	-137.842640
600.524212	-137.779330
600.644529	-137.688018
600.764895	-137.571079
600.885308	-137.440538
601.005770	-137.314321
601.126280	-137.211120
601.246839	-137.145630
601.367446	-137.125136
601.488101	-137.147755
601.608804	-137.202430
601.729557	-137.270987
601.850357	-137.332642
601.971206	-137.370461
602.092104	-137.377677
602.213050	-137.360712
602.334045	-137.337120
602.455089	-137.329513
602.576181	-137.358572
602.697322	-137.437650
602.818511	-137.569919
602.939749	-137.748236
603.061036	-137.957798
603.182372	-138.181578
603.303757	-138.407630
603.425191	-138.635818
603.546673	-138.880817
603.668204	-139.169812
603.789785	-139.536292
603.911414	-140.012914
604.033092	-140.625474
604.154820	-141.388200
604.276596	-142.299567
604.398422	-143.338101
604.520297	-144.459121
604.642220	-145.594614
604.764193	-146.655164
604.886216	-147.523320
605.008287	-148.034140
605.130408	-147.998839
605.252578	-147.349465
605.374798	-146.259371
605.497066	-145.026074
605.619385	-143.892829
605.741752	-143.002297
605.864169	-142.428488
605.986636	-142.212063
606.109152	-142.380509
606.231718	-142.954008
606.354333	-143.932921
606.476998	-145.243713
606.599712	-146.599620
606.722476	-147.384529
606.845290	-147.155483
606.968154	-146.338148
607.091067	-145.627457
607.214030	-145.425162
607.337043	-145.961556
607.460106	-147.527057
607.583219	-150.820639
607.706381	-158.517862
607.829594	-158.095852
607.952856	-149.269971
608.076169	-144.847625
608.199531	-142.088714
608.322944	-140.259040
608.446407	-139.055873
608.569920	-138.314583
608.693483	-137.919617
608.817096	-137.766627
608.940759	-137.745870
609.064473	-137.746425
609.188237	-137.684628
609.312051	-137.540332
609.435916	-137.365475
609.559831	-137.254365
609.683796	-137.305921
609.807812	-137.604975
609.931878	-138.222934
610.055995	-139.227531
610.180162	-140.694563
610.304380	-142.716012
610.428648	-145.378984
610.552967	-148.561015
610.677337	-151.056952
610.801757	-150.964160
610.926228	-149.650981
611.050750	-148.773753
611.175323	-148.617597
611.299946	-149.043219
611.424620	-149.705818
611.549345	-150.066289
611.674121	-149.794193
611.798948	-149.207873
611.923826	-148.879992
612.048755	-149.240179
612.173734	-150.657352
612.298765	-153.560326
612.423847	-156.191158
612.548980	-151.899733
612.674165	-147.009575
612.799400	-143.538533
612.924687	-141.053273
613.050025	-139.249241
613.175414	-137.950917
613.300854	-137.047074
613.426346	-136.457150
613.551889	-136.113417
613.677484	-135.950820
613.803130	-135.902134
613.928827	-135.899046
614.054576	-135.880028
614.180377	-135.802487
614.306229	-135.651458
614.432132	-135.437333
614.558087	-135.183677
614.684094	-134.913431
614.810153	-134.640572
614.936263	-134.368833
615.062425	-134.095436
615.188639	-133.816927
615.314904	-133.534498
615.441222	-133.256757
615.567591	-132.999364
615.694012	-132.782534
615.820486	-132.627891
615.947011	-132.556091
616.073588	-132.585743
616.200217	-132.733495
616.326898	-133.014936
616.453632	-133.445945
616.580417	-134.043950
616.707255	-134.828549
616.834144	-135.820445
616.961086	-137.035553
617.088081	-138.465698
617.215127	-140.026703
617.342226	-141.457511
617.469378	-142.287749
617.596581	-142.215629
617.723837	-141.525498
617.851146	-140.710206
617.978507	-140.050144
618.105920	-139.611469
618.233386	-139.326608
618.360905	-139.031710
618.488476	-138.518274
618.616100	-137.656115
618.743777	-136.496235
618.871506	-135.212292
618.999288	-133.969542
619.127123	-132.866807
619.255011	-131.944778
619.382951	-131.208521
619.510945	-130.643543
619.638991	-130.224879
619.767090	-129.922758
619.895243	-129.707557
620.023448	-129.555057
620.151706	-129.451303
620.280017	-129.395359
620.408382	-129.398771
620.536799	-129.482236
620.665270	-129.671195
620.793794	-129.992152
620.922371	-130.470684
621.051002	-131.131058
621.179686	-131.996963
621.308423	-133.092745
621.437213	-134.444333
621.566057	-136.078084
621.694954	-138.012292
621.823905	-140.224213
621.952909	-142.544907
622.081967	-144.440816
622.211079	-145.089793
622.340244	-144.377250
622.469462	-142.976978
622.598735	-141.352076
622.728061	-139.647159
622.857441	-137.920959
622.986874	-136.234490
623.116361	-134.647923
623.245903	-133.205710
623.375498	-131.933201
623.505147	-130.840900
623.634850	-129.929856
623.764606	-129.195412
623.894417	-128.628946
624.024282	-128.218064
624.154201	-127.945784
624.284174	-127.789317
624.414202	-127.719325
624.544283	-127.701000
624.674419	-127.698441
624.804609	-127.682642
624.934853	-127.640475
625.065151	-127.579841
625.195504	-127.527544
625.325911	-127.521200
625.456373	-127.599864
625.586889	-127.797226
625.717460	-128.138260
625.848085	-128.638179
625.978764	-129.302176
626.109498	-130.124990
626.240287	-131.090043
626.371131	-132.168335
626.502029	-133.317229
626.632982	-134.478204
626.763989	-135.571226
626.895052	-136.486138
627.026169	-137.086935
627.157341	-137.261471
627.288568	-137.006262
627.419850	-136.449212
627.551187	-135.770909
627.682579	-135.120231
627.814026	-134.587950
627.945528	-134.217049
628.077085	-134.019337
628.208697	-133.987682
628.340364	-134.103717
628.472087	-134.343210
628.603865	-134.680963
628.735698	-135.095950
628.867586	-135.576149
628.999530	-136.121968
629.131529	-136.747668
629.263584	-137.481179
629.395694	-138.363204
629.527859	-139.445116
629.660080	-140.779120
629.792357	-142.371259
629.924689	-143.995004
630.057077	-144.786536
630.189520	-143.755623
630.322019	-141.525730
630.454574	-139.175376
630.587184	-137.097698
630.719851	-135.343979
630.852573	-133.886697
630.985351	-132.693166
631.118185	-131.740875
631.251075	-131.018952
631.384021	-130.526905
631.517023	-130.273425
631.650081	-130.276154
631.783195	-130.563050
631.916365	-131.176337
632.049592	-132.181421
632.182874	-133.686654
632.316213	-135.889549
632.449608	-139.193789
632.583059	-144.380662
632.716567	-147.548073
632.850131	-141.780642
632.983751	-137.492187
633.117428	-134.635364
633.251161	-132.574700
633.384951	-131.010012
633.518797	-129.793551
633.652700	-128.852670
633.786660	-128.156129
633.920676	-127.696561
634.054749	-127.480143
634.188879	-127.519891
634.323065	-127.830045
634.457308	-128.417785
634.591608	-129.264488
634.725965	-130.281370
634.860379	-131.230144
634.994850	-131.699545
635.129377	-131.389032
635.263962	-130.469753
635.398604	-129.350817
635.533303	-128.304809
635.668058	-127.428222
635.802872	-126.722879
635.937742	-126.152830
636.072669	-125.673339
636.207654	-125.247246
636.342696	-124.854392
636.477796	-124.494100
636.612953	-124.181047
636.748167	-123.937567
636.883439	-123.786293
637.018768	-123.745417
637.154155	-123.826549
637.289599	-124.034089
637.425101	-124.364981
637.560660	-124.808113
637.696277	-125.343071
637.831952	-125.938317
637.967685	-126.549311
638.103475	-127.117635
638.239324	-127.573450
638.375230	-127.845250
638.511194	-127.879926
638.647215	-127.667138
638.783295	-127.250392
638.919433	-126.712848
639.055629	-126.148566
639.191883	-125.639114
639.328195	-125.243406
639.464565	-124.996558
639.600994	-124.911251
639.737481	-124.977879
639.874025	-125.163083
640.010629	-125.409881
640.147290	-125.646081
640.284010	-125.806474
640.420789	-125.861287
640.557625	-125.827978
640.694521	-125.752219
640.831474	-125.672449
640.968487	-125.591761
641.105558	-125.469060
641.242687	-125.234746
641.379876	-124.831066
641.517123	-124.254816
641.654429	-123.564308
641.791793	-122.846161
641.929216	-122.177485
642.066699	-121.608519
642.204240	-121.162727
642.341840	-120.843241
642.479499	-120.639358
642.617217	-120.531622
642.754994	-120.495966
642.892830	-120.507690
643.030726	-120.545706
643.168680	-120.596828
643.306694	-120.659162
643.444767	-120.743633
643.582899	-120.873354
643.721091	-121.081518
643.859342	-121.409145
643.997652	-121.904170
644.136022	-122.623209
644.274451	-123.637691
644.412940	-125.047660
644.551488	-127.011482
644.690096	-129.810330
644.828763	-133.926259
644.967490	-138.360598
645.106277	-135.326922
645.245124	-130.832349
645.384030	-127.730524
645.522997	-125.524190
645.662023	-123.870093
645.801109	-122.580771
645.940255	-121.550001
646.079460	-120.718228
646.218726	-120.055783
646.358052	-119.552930
646.497438	-119.212794
646.636884	-119.046101
646.776391	-119.067540
646.915957	-119.293535
647.055584	-119.740864
647.195271	-120.425209
647.335019	-121.357852
647.474826	-122.536549
647.614695	-123.921389
647.754623	-125.379816
647.894612	-126.607810
648.034662	-127.177361
648.174772	-126.909420
648.314943	-126.087373
648.455174	-125.098616
648.595466	-124.166946
648.735819	-123.380258
648.876233	-122.768647
649.016707	-122.346432
649.157242	-122.127362
649.297838	-122.127993
649.438495	-122.366813
649.579213	-122.861634
649.719992	-123.624258
649.860832	-124.647057
650.001733	-125.868520
650.142695	-127.099684
650.283718	-127.950391
650.424803	-127.998487
650.565949	-127.250082
650.707156	-126.114348
650.848424	-124.947364
650.989754	-123.913328
651.131145	-123.064698
651.272597	-122.412208
651.414111	-121.955039
651.555687	-121.690115
651.697324	-121.613338
651.839022	-121.718271
651.980782	-121.994309
652.122604	-122.425291
652.264488	-122.989336
652.406433	-123.660780
652.548441	-124.414949
652.690510	-125.235157
652.832640	-126.119094
652.974833	-127.080760
653.117088	-128.146055
653.259405	-129.344416
653.401784	-130.702853
653.544224	-132.252122
653.686727	-134.058262
653.829293	-136.285503
653.971920	-139.198918
654.114609	-141.921370
654.257361	-139.437690
654.400175	-134.582509
654.543052	-130.625660
654.685991	-127.551374
654.828992	-125.126923
654.972056	-123.198499
655.115183	-121.664754
655.258372	-120.451332
655.401623	-119.497269
655.544937	-118.748855
655.688314	-118.158547
655.831754	-117.687661
655.975256	-117.311005
656.118822	-117.020465
656.262450	-116.824866
656.406141	-116.745784
656.549894	-116.811504
656.693711	-117.051878
656.837591	-117.495577
656.981534	-118.169860
657.125540	-119.102561
657.269610	-120.326457
657.413742	-121.887399
657.557938	-123.860106
657.702196	-126.380975
657.846519	-129.716127
657.990904	-134.290472
658.135353	-138.184055
658.279866	-134.541293
658.424441	-130.241190
658.569081	-127.111108
658.713784	-124.716597
658.858550	-122.803539
659.003381	-121.262049
659.148274	-120.052954
659.293232	-119.170825
659.438253	-118.627163
659.583339	-118.444450
659.728488	-118.656684
659.873701	-119.315022
660.018978	-120.499735
660.164318	-122.341384
660.309723	-125.040432
660.455192	-128.655180
660.600725	-130.872935
660.746323	-128.218435
660.891984	-124.912715
661.037710	-122.447806
661.183500	-120.622195
661.329354	-119.198057
661.475272	-118.022743
661.621255	-117.011807
661.767303	-116.130219
661.913415	-115.375515
662.059591	-114.763140
662.205833	-114.315850
662.352138	-114.057521
662.498509	-114.009835
662.644944	-114.189608
662.791443	-114.604253
662.938008	-115.242257
663.084638	-116.055113
663.231332	-116.931829
663.378091	-117.690161
663.524915	-118.143614
663.671804	-118.243528
663.818759	-118.126075
663.965778	-117.988584
664.112863	-117.968366
664.260012	-118.116727
664.407227	-118.421452
664.554507	-118.838631
664.701853	-119.325187
664.849264	-119.860365
664.996740	-120.430154
665.144282	-120.954307
665.291889	-121.186961
665.439561	-120.774929
665.587300	-119.636483
665.735103	-118.114270
665.882973	-116.602258
666.030908	-115.315661
666.178909	-114.330095
666.326976	-113.655863
666.475109	-113.277579
666.623307	-113.170073
666.771571	-113.303877
666.919902	-113.646800
667.068298	-114.164590
667.216761	-114.822283
667.365289	-115.587376
667.513884	-116.435478
667.662545	-117.358346
667.811272	-118.373178
667.960065	-119.532269
668.108925	-120.935258
668.257851	-122.755445
668.406843	-125.319350
668.555902	-129.415327
668.705027	-138.482110
668.854219	-138.733291
669.003478	-129.084822
669.152803	-124.660151
669.302195	-121.864597
669.451653	-119.918521
669.601179	-118.519299
669.750771	-117.515726
669.900430	-116.819596
670.050156	-116.373382
670.199949	-116.135971
670.349808	-116.075064
670.499735	-116.161837
670.649729	-116.365678
670.799790	-116.647938
670.949918	-116.955384
671.100114	-117.217206
671.250377	-117.353120
671.400707	-117.297577
671.551104	-117.029240
671.701569	-116.580280
671.852101	-116.015818
672.002700	-115.403710
672.153368	-114.796561
672.304102	-114.228821
672.454905	-113.721186
672.605775	-113.285636
672.756713	-112.928432
672.907718	-112.650967
673.058791	-112.449419
673.209933	-112.314373
673.361142	-112.231330
673.512419	-112.182544
673.663764	-112.150039
673.815177	-112.119062
673.966658	-112.080673
674.118207	-112.032411
674.269825	-111.976938
674.421510	-111.919543
674.573264	-111.865766
674.725086	-111.820055
674.876977	-111.785870
675.028936	-111.767179
675.180963	-111.770872
675.333059	-111.809050
675.485224	-111.899798
675.637457	-112.065149
675.789758	-112.325432
675.942129	-112.689187
676.094568	-113.137442
676.247075	-113.603281
676.399652	-113.959585
676.552298	-114.051361
676.705012	-113.794310
676.857795	-113.253631
677.010648	-112.596167
677.163569	-111.984893
677.316560	-111.528607
677.469619	-111.287048
677.622748	-111.291443
677.775946	-111.562261
677.929214	-112.123006
678.082551	-113.014141
678.235957	-114.313665
678.389432	-116.178898
678.542977	-118.959269
678.696592	-123.639089
678.850276	-135.818662
679.004030	-128.404212
679.157853	-120.881658
679.311746	-117.028271
679.465709	-114.578259
679.619742	-112.938367
679.773844	-111.870991
679.928017	-111.262009
680.082259	-111.052691
680.236571	-111.214823
680.390954	-111.741617
680.545406	-112.646429
680.699929	-113.965984
680.854522	-115.760003
681.009185	-118.055898
681.163918	-120.449864
681.318722	-121.038796
681.473596	-118.820610
681.628540	-115.966740
681.783555	-113.517396
681.938641	-111.550579
682.093797	-109.989408
682.249023	-108.761427
682.404321	-107.812838
682.559689	-107.103600
682.715128	-106.602373
682.870637	-106.283271
683.026218	-106.124108
683.181869	-106.105778
683.337591	-106.212513
683.493385	-106.432816
683.649249	-106.760639
683.805185	-107.195970
683.961191	-107.743532
684.117269	-108.407816
684.273418	-109.181831
684.429639	-110.026354
684.585930	-110.840555
684.742294	-111.448409
684.898728	-111.664955
685.055234	-111.448751
685.211812	-110.958467
685.368461	-110.424797
685.525182	-110.025556
685.681975	-109.864113
685.838839	-109.995438
685.995775	-110.451968
686.152783	-111.258330
686.309863	-112.431787
686.467014	-113.947942
686.624238	-115.594329
686.781534	-116.635420
686.938902	-116.092513
687.096342	-114.298415
687.253854	-112.287821
687.411438	-110.541791
687.569095	-109.164396
687.726824	-108.153678
687.884626	-107.489942
688.042499	-107.156294
688.200446	-107.141967
688.358465	-107.442034
688.516556	-108.056660
688.674720	-108.989839
688.832957	-110.244772
688.991266	-111.805546
689.149649	-113.573212
689.308104	-115.197066
689.466632	-115.943788
689.625233	-115.361574
689.783906	-114.000126
689.942653	-112.556987
690.101473	-111.336316
690.260367	-110.414967
690.419333	-109.796892
690.578372	-109.468522
690.737485	-109.413573
690.896672	-109.614757
691.055931	-110.050382
691.215264	-110.687010
691.374671	-111.467296
691.534151	-112.293547
691.693704	-113.017365
691.853332	-113.465104
692.013033	-113.521382
692.172807	-113.208236
692.332656	-112.659688
692.492578	-112.027908
692.652575	-111.424955
692.812645	-110.917038
692.972789	-110.538283
693.133007	-110.304001
693.293300	-110.219555
693.453666	-110.285937
693.614107	-110.503115
693.774622	-110.871430
693.935211	-111.390920
694.095875	-112.058217
694.256613	-112.860150
694.417426	-113.761892
694.578313	-114.686151
694.739274	-115.484176
694.900311	-115.925936
695.061421	-115.781637
695.222607	-114.995529
695.383868	-113.739894
695.545203	-112.266413
695.706613	-110.773304
695.868098	-109.383393
696.029658	-108.167318
696.191293	-107.165261
696.353003	-106.399422
696.514789	-105.880047
696.676649	-105.607621
696.838585	-105.572447
697.000596	-105.752102
697.162682	-106.107359
697.324844	-106.578614
697.487081	-107.087455
697.649394	-107.549389
697.811782	-107.897073
697.974246	-108.099031
698.136786	-108.156820
698.299401	-108.085959
698.462092	-107.903349
698.624859	-107.631625
698.787702	-107.309425
698.950621	-106.992632
699.113616	-106.744835
699.276686	-106.626180
699.439833	-106.688111
699.603056	-106.974851
699.766355	-107.529321
699.929731	-108.402360
700.093183	-109.667381
700.256711	-111.448401
700.420315	-113.982647
700.583996	-117.758132
700.747754	-123.073330
700.911588	-121.828879
701.075499	-116.401435
701.239486	-112.672266
701.403550	-110.072578
701.567691	-108.189673
701.731909	-106.828387
701.896203	-105.890063
702.060575	-105.319900
702.225024	-105.083610
702.389549	-105.156231
702.554152	-105.516561
702.718832	-106.144788
702.883589	-107.022697
703.048424	-108.136263
703.213335	-109.478582
703.378324	-111.043540
703.543391	-112.778902
703.708535	-114.425515
703.873757	-115.281755
704.039056	-114.701250
704.204433	-113.160270
704.369887	-111.495703
704.535420	-110.092504
704.701030	-109.042792
704.866718	-108.344490
705.032484	-107.972437
705.198328	-107.897012
705.364250	-108.087605
705.530250	-108.513234
705.696328	-109.144983
705.862485	-109.962490
706.028720	-110.964384
706.195033	-112.179391
706.361424	-113.673796
706.527894	-115.554899
706.694442	-117.976479
706.861069	-121.152916
707.027775	-125.351081
707.194559	-130.448415
707.361422	-133.651145
707.528363	-134.078982
707.695384	-136.704455
707.862483	-139.681103
708.029661	-130.006583
708.196918	-123.679430
708.364254	-119.373710
708.531670	-116.145081
708.699164	-113.592236
708.866738	-111.507153
709.034391	-109.765333
709.202123	-108.285673
709.369935	-107.016199
709.537826	-105.930369
709.705796	-105.025549
709.873847	-104.319235
710.041976	-103.842853
710.210186	-103.635646
710.378475	-103.741005
710.546844	-104.205916
710.715292	-105.082436
710.883821	-106.427092
711.052429	-108.281840
711.221118	-110.566333
711.389887	-112.677732
711.558735	-113.215030
711.727664	-112.012343
711.896673	-110.428933
712.065763	-109.125710
712.234932	-108.172406
712.404183	-107.500458
712.573513	-107.040864
712.742924	-106.751937
712.912416	-106.617076
713.081988	-106.634163
713.251641	-106.805698
713.421375	-107.133132
713.591190	-107.613280
713.761085	-108.230226
713.931061	-108.933652
714.101119	-109.600105
714.271257	-110.009201
714.441476	-109.931581
714.611777	-109.332867
714.782159	-108.413563
714.952622	-107.411927
715.123166	-106.466020
715.293792	-105.617311
715.464499	-104.859150
715.635288	-104.177813
715.806158	-103.575730
715.977110	-103.076311
716.148143	-102.715516
716.319259	-102.529513
716.490456	-102.545337
716.661735	-102.775895
716.833096	-103.217468
717.004538	-103.847876
717.176063	-104.625326
717.347670	-105.490131
717.519359	-106.372805
717.691130	-107.209263
717.862984	-107.956158
718.034920	-108.594741
718.206938	-109.120082
718.379039	-109.526044
718.551222	-109.798785
718.723488	-109.923460
718.895836	-109.900849
719.068267	-109.764462
719.240781	-109.585216
719.413377	-109.458271
719.586057	-109.481251
719.758819	-109.736102
719.931664	-110.275923
720.104593	-111.105336
720.277604	-112.134266
720.450699	-113.101624
720.623876	-113.595278
720.797137	-113.401361
720.970482	-112.789116
721.143910	-112.192712
721.317421	-111.905743
721.491016	-112.103963
721.664694	-112.963154
721.838456	-114.805549
722.012302	-118.473684
722.186231	-126.977799
722.360244	-121.931328
722.534342	-114.279262
722.708523	-109.908648
