# 2022-03-21_21.29.18
# shape = sech2
# FWHM_ps = 0.1
# carrier_nm = 1542
# frep_MHz = 12126
# pow_mW = 8000
# GDD = 0.0
# propa_len = 0.098
# untap_len = 0.01
# taper_len = 0.038
# waist_len = 0.02
# uptap_len = 0.02
# untap_scale = 1.0
# waist_scale = 0.33684210526315794
# workingDir = NL_20110305_12 (Spirou)
# axis = slow
# window_ps = 10.0
# steps = 200
# points = 21700
# 
# wavelength [nm]	 power spectral density [dB]
600.043425	-136.488394
600.163550	-137.025843
600.283723	-137.596316
600.403943	-138.217161
600.524212	-138.877196
600.644529	-139.518679
600.764895	-140.022765
600.885308	-140.224288
601.005770	-139.994588
601.126280	-139.345391
601.246839	-138.422270
601.367446	-137.397614
601.488101	-136.394554
601.608804	-135.478448
601.729557	-134.675323
601.850357	-133.989268
601.971206	-133.413244
602.092104	-132.935023
602.213050	-132.540923
602.334045	-132.218293
602.455089	-131.956507
602.576181	-131.747274
602.697322	-131.584436
602.818511	-131.463053
602.939749	-131.378210
603.061036	-131.324221
603.182372	-131.294496
603.303757	-131.281813
603.425191	-131.278736
603.546673	-131.278053
603.668204	-131.273292
603.789785	-131.259115
603.911414	-131.231162
604.033092	-131.185548
604.154820	-131.118479
604.276596	-131.026011
604.398422	-130.904202
604.520297	-130.749637
604.642220	-130.559948
604.764193	-130.334232
604.886216	-130.073486
605.008287	-129.780852
605.130408	-129.461452
605.252578	-129.121620
605.374798	-128.768297
605.497066	-128.408984
605.619385	-128.051809
605.741752	-127.705264
605.864169	-127.377798
605.986636	-127.077565
606.109152	-126.812252
606.231718	-126.588669
606.354333	-126.412094
606.476998	-126.285804
606.599712	-126.211011
606.722476	-126.186917
606.845290	-126.210717
606.968154	-126.277835
607.091067	-126.382424
607.214030	-126.517650
607.337043	-126.675650
607.460106	-126.847659
607.583219	-127.024269
607.706381	-127.195625
607.829594	-127.351895
607.952856	-127.484137
608.076169	-127.585281
608.199531	-127.650772
608.322944	-127.678630
608.446407	-127.669377
608.569920	-127.625847
608.693483	-127.552550
608.817096	-127.454912
608.940759	-127.338719
609.064473	-127.209836
609.188237	-127.074154
609.312051	-126.937702
609.435916	-126.806751
609.559831	-126.687721
609.683796	-126.586943
609.807812	-126.510459
609.931878	-126.463776
610.055995	-126.451566
610.180162	-126.477380
610.304380	-126.543511
610.428648	-126.650979
610.552967	-126.799569
610.677337	-126.987910
610.801757	-127.213507
610.926228	-127.472488
611.050750	-127.759292
611.175323	-128.066356
611.299946	-128.383783
611.424620	-128.698848
611.549345	-128.995451
611.674121	-129.254275
611.798948	-129.454274
611.923826	-129.575344
612.048755	-129.601963
612.173734	-129.527163
612.298765	-129.354912
612.423847	-129.099276
612.548980	-128.780638
612.674165	-128.420722
612.799400	-128.038123
612.924687	-127.645430
613.050025	-127.248006
613.175414	-126.844327
613.300854	-126.427800
613.426346	-125.989459
613.551889	-125.520927
613.677484	-125.017215
613.803130	-124.478682
613.928827	-123.911571
614.054576	-123.326936
614.180377	-122.738659
614.306229	-122.161467
614.432132	-121.609258
614.558087	-121.093914
614.684094	-120.624827
614.810153	-120.209046
614.936263	-119.851625
615.062425	-119.555881
615.188639	-119.323712
615.314904	-119.155870
615.441222	-119.052066
615.567591	-119.011141
615.694012	-119.031369
615.820486	-119.110647
615.947011	-119.246548
616.073588	-119.436506
616.200217	-119.678077
616.326898	-119.969132
616.453632	-120.307940
616.580417	-120.693123
616.707255	-121.123564
616.834144	-121.598273
616.961086	-122.116250
617.088081	-122.676210
617.215127	-123.276351
617.342226	-123.914245
617.469378	-124.586896
617.596581	-125.291052
617.723837	-126.023801
617.851146	-126.783552
617.978507	-127.571612
618.105920	-128.393997
618.233386	-129.262508
618.360905	-130.194638
618.488476	-131.211918
618.616100	-132.333971
618.743777	-133.559434
618.871506	-134.813305
618.999288	-135.838312
619.127123	-136.138342
619.255011	-135.361759
619.382951	-133.792158
619.510945	-131.960658
619.638991	-130.180871
619.767090	-128.563494
619.895243	-127.130374
620.023448	-125.874052
620.151706	-124.779953
620.280017	-123.833591
620.408382	-123.022339
620.536799	-122.335580
620.665270	-121.764412
620.793794	-121.301097
620.922371	-120.938493
621.051002	-120.669604
621.179686	-120.486999
621.308423	-120.382109
621.437213	-120.344696
621.566057	-120.362554
621.694954	-120.421409
621.823905	-120.505263
621.952909	-120.597457
622.081967	-120.682411
622.211079	-120.747779
622.340244	-120.786485
622.469462	-120.797945
622.598735	-120.787792
622.728061	-120.766047
622.857441	-120.744632
622.986874	-120.735037
623.116361	-120.746401
623.245903	-120.784101
623.375498	-120.848876
623.505147	-120.936582
623.634850	-121.038590
623.764606	-121.142933
623.894417	-121.236312
624.024282	-121.306887
624.154201	-121.347261
624.284174	-121.356749
624.414202	-121.342085
624.544283	-121.316165
624.674419	-121.295485
624.804609	-121.297125
624.934853	-121.336064
625.065151	-121.423245
625.195504	-121.564139
625.325911	-121.757352
625.456373	-121.992881
625.586889	-122.250195
625.717460	-122.496843
625.848085	-122.689205
625.978764	-122.777970
626.109498	-122.719745
626.240287	-122.491307
626.371131	-122.098016
626.502029	-121.570165
626.632982	-120.950343
626.763989	-120.280665
626.895052	-119.595433
627.026169	-118.919189
627.157341	-118.267908
627.288568	-117.651203
627.419850	-117.074395
627.551187	-116.540072
627.682579	-116.049083
627.814026	-115.601074
627.945528	-115.194793
628.077085	-114.828261
628.208697	-114.498890
628.340364	-114.203585
628.472087	-113.938771
628.603865	-113.700318
628.735698	-113.483480
628.867586	-113.283059
628.999530	-113.093727
629.131529	-112.910229
629.263584	-112.727628
629.395694	-112.541714
629.527859	-112.349486
629.660080	-112.149600
629.792357	-111.942690
629.924689	-111.731537
630.057077	-111.521050
630.189520	-111.317961
630.322019	-111.130307
630.454574	-110.966819
630.587184	-110.836336
630.719851	-110.747361
630.852573	-110.707811
630.985351	-110.724890
631.118185	-110.805030
631.251075	-110.953913
631.384021	-111.176492
631.517023	-111.477037
631.650081	-111.859275
631.783195	-112.326529
631.916365	-112.881701
632.049592	-113.527183
632.182874	-114.264803
632.316213	-115.095701
632.449608	-116.019946
632.583059	-117.035648
632.716567	-118.137165
632.850131	-119.311805
632.983751	-120.533971
633.117428	-121.755497
633.251161	-122.893259
633.384951	-123.823663
633.518797	-124.406640
633.652700	-124.550977
633.786660	-124.271744
633.920676	-123.670411
634.054749	-122.863430
634.188879	-121.934929
634.323065	-120.931499
634.457308	-119.875906
634.591608	-118.781587
634.725965	-117.661608
634.860379	-116.532012
634.994850	-115.411507
635.129377	-114.319347
635.263962	-113.273135
635.398604	-112.287507
635.533303	-111.373710
635.668058	-110.539823
635.802872	-109.791251
635.937742	-109.131288
636.072669	-108.561659
636.207654	-108.082919
636.342696	-107.694742
636.477796	-107.396234
636.612953	-107.186206
636.748167	-107.063349
636.883439	-107.026369
637.018768	-107.074091
637.154155	-107.205563
637.289599	-107.420146
637.425101	-107.717586
637.560660	-108.098023
637.696277	-108.561955
637.831952	-109.110070
637.967685	-109.742852
638.103475	-110.459870
638.239324	-111.258560
638.375230	-112.132099
638.511194	-113.066067
638.647215	-114.033908
638.783295	-114.992023
638.919433	-115.877777
639.055629	-116.617313
639.191883	-117.148146
639.328195	-117.447958
639.464565	-117.546786
639.600994	-117.510534
639.737481	-117.411707
639.874025	-117.309238
640.010629	-117.242527
640.147290	-117.233900
640.284010	-117.293674
640.420789	-117.424703
640.557625	-117.625443
640.694521	-117.891956
640.831474	-118.219569
640.968487	-118.604058
641.105558	-119.042261
641.242687	-119.532475
641.379876	-120.074922
641.517123	-120.672093
641.654429	-121.328660
641.791793	-122.050332
641.929216	-122.840372
642.066699	-123.690453
642.204240	-124.559522
642.341840	-125.334474
642.479499	-125.790293
642.617217	-125.645686
642.754994	-124.791753
642.892830	-123.421068
643.030726	-121.832609
643.168680	-120.236102
643.306694	-118.732515
643.444767	-117.358760
643.582899	-116.122487
643.721091	-115.019556
643.859342	-114.041687
643.997652	-113.179725
644.136022	-112.425029
644.274451	-111.769960
644.412940	-111.207965
644.551488	-110.733480
644.690096	-110.341798
644.828763	-110.028898
644.967490	-109.791287
645.106277	-109.625783
645.245124	-109.529146
645.384030	-109.497662
645.522997	-109.526770
645.662023	-109.610627
645.801109	-109.741638
645.940255	-109.910136
646.079460	-110.104328
646.218726	-110.310539
646.358052	-110.513941
646.497438	-110.699872
646.636884	-110.855626
646.776391	-110.972355
646.915957	-111.046449
647.055584	-111.079755
647.195271	-111.078637
647.335019	-111.052483
647.474826	-111.012063
647.614695	-110.968004
647.754623	-110.929604
647.894612	-110.904066
648.034662	-110.896011
648.174772	-110.907086
648.314943	-110.935555
648.455174	-110.976095
648.595466	-111.020015
648.735819	-111.056048
648.876233	-111.071948
649.016707	-111.056853
649.157242	-111.003875
649.297838	-110.912174
649.438495	-110.787767
649.579213	-110.642673
649.719992	-110.492773
649.860832	-110.355181
650.001733	-110.246016
650.142695	-110.179035
650.283718	-110.164976
650.424803	-110.211350
650.565949	-110.322447
650.707156	-110.499236
650.848424	-110.739079
650.989754	-111.035125
651.131145	-111.375280
651.272597	-111.741169
651.414111	-112.107851
651.555687	-112.445430
651.697324	-112.723694
651.839022	-112.919576
651.980782	-113.024985
652.122604	-113.050871
652.264488	-113.024789
652.406433	-112.983457
652.548441	-112.964632
652.690510	-113.001811
652.832640	-113.122187
652.974833	-113.346574
653.117088	-113.690164
653.259405	-114.163087
653.401784	-114.769707
653.544224	-115.505310
653.686727	-116.347564
653.829293	-117.239167
653.971920	-118.062338
654.114609	-118.627272
654.257361	-118.734171
654.400175	-118.319538
654.543052	-117.518891
654.685991	-116.548968
654.828992	-115.581859
654.972056	-114.717735
655.115183	-114.007357
655.258372	-113.476344
655.401623	-113.140122
655.544937	-113.012037
655.688314	-113.108298
655.831754	-113.452127
655.975256	-114.079071
656.118822	-115.046305
656.262450	-116.451673
656.406141	-118.478253
656.549894	-121.518562
656.693711	-126.596067
656.837591	-133.752363
656.981534	-126.361736
657.125540	-120.866293
657.269610	-117.398733
657.413742	-114.902185
657.557938	-112.965339
657.702196	-111.392578
657.846519	-110.077609
657.990904	-108.958283
658.135353	-107.997091
658.279866	-107.171341
658.424441	-106.467469
658.569081	-105.877401
658.713784	-105.396197
658.858550	-105.020496
659.003381	-104.747398
659.148274	-104.573675
659.293232	-104.495154
659.438253	-104.506103
659.583339	-104.598480
659.728488	-104.760989
659.873701	-104.977936
660.018978	-105.228082
660.164318	-105.483963
660.309723	-105.712560
660.455192	-105.878356
660.600725	-105.949302
660.746323	-105.904447
660.891984	-105.739807
661.037710	-105.468956
661.183500	-105.117966
661.329354	-104.717820
661.475272	-104.298102
661.621255	-103.883624
661.767303	-103.493545
661.913415	-103.142005
662.059591	-102.839336
662.205833	-102.593229
662.352138	-102.409634
662.498509	-102.293460
662.644944	-102.249058
662.791443	-102.280587
662.938008	-102.392311
663.084638	-102.588803
663.231332	-102.875152
663.378091	-103.257265
663.524915	-103.742163
663.671804	-104.338296
663.818759	-105.055873
663.965778	-105.907050
664.112863	-106.905618
664.260012	-108.065572
664.407227	-109.396681
664.554507	-110.892640
664.701853	-112.502973
664.849264	-114.078947
664.996740	-115.324757
665.144282	-115.910094
665.291889	-115.794970
665.439561	-115.283146
665.587300	-114.701549
665.735103	-114.227414
665.882973	-113.916527
666.030908	-113.757687
666.178909	-113.702263
666.326976	-113.679808
666.475109	-113.615797
666.623307	-113.457763
666.771571	-113.199232
666.919902	-112.882602
667.068298	-112.578794
667.216761	-112.362333
667.365289	-112.297579
667.513884	-112.437255
667.662545	-112.827650
667.811272	-113.515948
667.960065	-114.556948
668.108925	-116.013949
668.257851	-117.926861
668.406843	-120.114024
668.555902	-121.513204
668.705027	-120.600486
668.854219	-118.312586
669.003478	-116.074668
669.152803	-114.242257
669.302195	-112.793805
669.451653	-111.651157
669.601179	-110.741394
669.750771	-110.003445
669.900430	-109.386263
670.050156	-108.847451
670.199949	-108.353746
670.349808	-107.882358
670.499735	-107.421481
670.649729	-106.969175
670.799790	-106.530862
670.949918	-106.116075
671.100114	-105.735304
671.250377	-105.397509
671.400707	-105.108539
671.551104	-104.870383
671.701569	-104.680985
671.852101	-104.534403
672.002700	-104.421392
672.153368	-104.330513
672.304102	-104.249842
672.454905	-104.169314
672.605775	-104.083342
672.756713	-103.992922
672.907718	-103.906404
673.058791	-103.838656
673.209933	-103.809122
673.361142	-103.839599
673.512419	-103.952405
673.663764	-104.169176
673.815177	-104.510384
673.966658	-104.995468
674.118207	-105.643182
674.269825	-106.471513
674.421510	-107.496472
674.573264	-108.728068
674.725086	-110.159235
674.876977	-111.739100
675.028936	-113.320554
675.180963	-114.608042
675.333059	-115.252140
675.485224	-115.165521
675.637457	-114.607044
675.789758	-113.874432
675.942129	-113.119748
676.094568	-112.380067
676.247075	-111.647187
676.399652	-110.911784
676.552298	-110.180849
676.705012	-109.476506
676.857795	-108.826697
677.010648	-108.256370
677.163569	-107.782733
677.316560	-107.414077
677.469619	-107.150349
677.622748	-106.984264
677.775946	-106.902438
677.929214	-106.886611
678.082551	-106.915313
678.235957	-106.966076
678.389432	-107.018227
678.542977	-107.055773
678.696592	-107.069614
678.850276	-107.058328
679.004030	-107.027199
679.157853	-106.986141
679.311746	-106.947392
679.465709	-106.923648
679.619742	-106.926975
679.773844	-106.968514
679.928017	-107.058651
680.082259	-107.207215
680.236571	-107.423495
680.390954	-107.716185
680.545406	-108.093351
680.699929	-108.562310
680.854522	-109.129271
681.009185	-109.798843
681.163918	-110.573515
681.318722	-111.453392
681.473596	-112.436968
681.628540	-113.524002
681.783555	-114.722574
681.938641	-116.063193
682.093797	-117.623476
682.249023	-119.574009
682.404321	-122.292669
682.559689	-126.812914
682.715128	-139.043024
682.870637	-130.708100
683.026218	-122.848626
683.181869	-118.571091
683.337591	-115.652868
683.493385	-113.508703
683.649249	-111.902023
683.805185	-110.717139
683.961191	-109.891997
684.117269	-109.392457
684.273418	-109.200894
684.429639	-109.310642
684.585930	-109.722433
684.742294	-110.440139
684.898728	-111.461599
685.055234	-112.754657
685.211812	-114.196833
685.368461	-115.467174
685.525182	-116.046279
685.681975	-115.660303
685.838839	-114.619253
685.995775	-113.356977
686.152783	-112.082627
686.309863	-110.839197
686.467014	-109.615834
686.624238	-108.405019
686.781534	-107.217522
686.938902	-106.075395
687.096342	-105.000215
687.253854	-104.006102
687.411438	-103.098137
687.569095	-102.273902
687.726824	-101.526330
687.884626	-100.846796
688.042499	-100.227679
688.200446	-99.663953
688.358465	-99.153704
688.516556	-98.697772
688.674720	-98.298772
688.832957	-97.959840
688.991266	-97.683417
689.149649	-97.470438
689.308104	-97.320018
689.466632	-97.229530
689.625233	-97.195011
689.783906	-97.211872
689.942653	-97.275720
690.101473	-97.383080
690.260367	-97.531864
690.419333	-97.721327
690.578372	-97.951344
690.737485	-98.221049
690.896672	-98.526858
691.055931	-98.859945
691.215264	-99.203619
691.374671	-99.531436
691.534151	-99.807692
691.693704	-99.992804
691.853332	-100.054509
692.013033	-99.980941
692.172807	-99.787693
692.332656	-99.513503
692.492578	-99.207709
692.652575	-98.917902
692.812645	-98.683033
692.972789	-98.531836
693.133007	-98.484198
693.293300	-98.553563
693.453666	-98.749434
693.614107	-99.079798
693.774622	-99.553581
693.935211	-100.183432
694.095875	-100.989208
694.256613	-102.002957
694.417426	-103.277212
694.578313	-104.900792
694.739274	-107.033770
694.900311	-110.001614
695.061421	-114.625909
695.222607	-123.571332
695.383868	-120.064220
695.545203	-113.217304
695.706613	-109.532359
695.868098	-107.173061
696.029658	-105.559339
696.191293	-104.442348
696.353003	-103.690590
696.514789	-103.221543
696.676649	-102.972440
696.838585	-102.883522
697.000596	-102.886043
697.162682	-102.895106
697.324844	-102.813541
697.487081	-102.554641
697.649394	-102.077319
697.811782	-101.405444
697.974246	-100.611343
698.136786	-99.779957
698.299401	-98.982552
698.462092	-98.269071
698.624859	-97.671386
698.787702	-97.208993
698.950621	-96.893764
699.113616	-96.733145
699.276686	-96.731955
699.439833	-96.893241
699.603056	-97.218411
699.766355	-97.706455
699.929731	-98.352135
700.093183	-99.142825
700.256711	-100.053467
700.420315	-101.039705
700.583996	-102.031687
700.747754	-102.936099
700.911588	-103.657540
701.075499	-104.138359
701.239486	-104.388095
701.403550	-104.472364
701.567691	-104.474263
701.731909	-104.464071
701.896203	-104.490772
702.060575	-104.587381
702.225024	-104.778941
702.389549	-105.087581
702.554152	-105.534352
702.718832	-106.138985
702.883589	-106.917969
703.048424	-107.880583
703.213335	-109.021399
703.378324	-110.306539
703.543391	-111.651686
703.708535	-112.899467
703.873757	-113.830882
704.039056	-114.254861
704.204433	-114.119866
704.369887	-113.507877
704.535420	-112.541412
704.701030	-111.334510
704.866718	-109.991482
705.032484	-108.605424
705.198328	-107.250208
705.364250	-105.977803
705.530250	-104.822805
705.696328	-103.809401
705.862485	-102.957418
706.028720	-102.286509
706.195033	-101.818488
706.361424	-101.578042
706.527894	-101.591349
706.694442	-101.879603
706.861069	-102.436861
707.027775	-103.163213
707.194559	-103.718545
707.361422	-103.475225
707.528363	-102.116925
707.695384	-100.119563
707.862483	-98.063472
708.029661	-96.213438
708.196918	-94.635867
708.364254	-93.326310
708.531670	-92.261216
708.699164	-91.414190
708.866738	-90.760115
709.034391	-90.275584
709.202123	-89.938334
709.369935	-89.726597
709.537826	-89.618683
709.705796	-89.592854
709.873847	-89.627584
710.041976	-89.702139
710.210186	-89.797214
710.378475	-89.895381
710.546844	-89.981190
710.715292	-90.041029
710.883821	-90.063146
711.052429	-90.038321
711.221118	-89.961344
711.389887	-89.832747
711.558735	-89.659960
711.727664	-89.457137
711.896673	-89.243559
712.065763	-89.041274
712.234932	-88.872862
712.404183	-88.759918
712.573513	-88.722404
712.742924	-88.778711
712.912416	-88.946133
713.081988	-89.241497
713.251641	-89.681897
713.421375	-90.285485
713.591190	-91.072126
713.761085	-92.063469
713.931061	-93.281412
714.101119	-94.741959
714.271257	-96.435888
714.441476	-98.275784
714.611777	-99.988942
714.782159	-101.073936
714.952622	-101.198402
715.123166	-100.656009
715.293792	-99.961214
715.464499	-99.410112
715.635288	-99.101753
715.806158	-99.047120
715.977110	-99.224537
716.148143	-99.598570
716.319259	-100.124000
716.490456	-100.744985
716.661735	-101.394681
716.833096	-101.999435
717.004538	-102.490360
717.176063	-102.820203
717.347670	-102.976494
717.519359	-102.981795
717.691130	-102.881770
717.862984	-102.730012
718.034920	-102.576637
718.206938	-102.461662
718.379039	-102.411045
718.551222	-102.433199
718.723488	-102.514851
718.895836	-102.617360
719.068267	-102.678611
719.240781	-102.629224
719.413377	-102.425259
719.586057	-102.078855
719.758819	-101.659148
719.931664	-101.263596
720.104593	-100.987561
720.277604	-100.910585
720.450699	-101.096170
720.623876	-101.593166
720.797137	-102.423114
720.970482	-103.518666
721.143910	-104.544641
721.317421	-104.735581
721.491016	-103.600709
721.664694	-101.730440
721.838456	-99.850985
722.012302	-98.254067
722.186231	-96.994640
722.360244	-96.056192
722.534342	-95.407038
722.708523	-95.014797
722.882788	-94.848491
723.057137	-94.877115
723.231570	-95.067510
723.406088	-95.382645
723.580689	-95.781283
723.755375	-96.220110
