# 2022-03-22_10.39.34
# shape = sech2
# FWHM_ps = 0.11
# carrier_nm = 1542
# frep_MHz = 12126
# pow_mW = 8000
# GDD = 0.0
# propa_len = 0.12555555555555556
# untap_len = 0.01
# taper_len = 0.06555555555555556
# waist_len = 0.02
# uptap_len = 0.02
# untap_scale = 1.0
# waist_scale = 0.33684210526315794
# workingDir = NL_20110305_12 (Spirou)
# axis = slow
# window_ps = 10.0
# steps = 200
# points = 21700
# 
# wavelength [nm]	 power spectral density [dB]
600.043425	-107.804654
600.163550	-107.394849
600.283723	-107.029801
600.403943	-106.698560
600.524212	-106.392085
600.644529	-106.101715
600.764895	-105.819521
600.885308	-105.538728
601.005770	-105.254120
601.126280	-104.962327
601.246839	-104.661918
601.367446	-104.353248
601.488101	-104.038082
601.608804	-103.719110
601.729557	-103.399460
601.850357	-103.082279
601.971206	-102.770457
602.092104	-102.466483
602.213050	-102.172409
602.334045	-101.889885
602.455089	-101.620210
602.576181	-101.364431
602.697322	-101.123421
602.818511	-100.897937
602.939749	-100.688664
603.061036	-100.496221
603.182372	-100.321156
603.303757	-100.163921
603.425191	-100.024825
603.546673	-99.904004
603.668204	-99.801424
603.789785	-99.716898
603.911414	-99.650133
604.033092	-99.600799
604.154820	-99.568610
604.276596	-99.553380
604.398422	-99.555069
604.520297	-99.573772
604.642220	-99.609672
604.764193	-99.662980
604.886216	-99.733844
605.008287	-99.822249
605.130408	-99.927944
605.252578	-100.050382
605.374798	-100.188702
605.497066	-100.341738
605.619385	-100.508063
605.741752	-100.686080
605.864169	-100.874123
605.986636	-101.070555
606.109152	-101.273829
606.231718	-101.482533
606.354333	-101.695340
606.476998	-101.910927
606.599712	-102.127879
606.722476	-102.344603
606.845290	-102.559245
606.968154	-102.769693
607.091067	-102.973654
607.214030	-103.168810
607.337043	-103.352997
607.460106	-103.524393
607.583219	-103.681672
607.706381	-103.824072
607.829594	-103.951386
607.952856	-104.063869
608.076169	-104.162120
608.199531	-104.246930
608.322944	-104.319131
608.446407	-104.379578
608.569920	-104.429170
608.693483	-104.468902
608.817096	-104.499947
608.940759	-104.523766
609.064473	-104.542185
609.188237	-104.557418
609.312051	-104.572015
609.435916	-104.588790
609.559831	-104.610689
609.683796	-104.640651
609.807812	-104.681465
609.931878	-104.735622
610.055995	-104.805178
610.180162	-104.891624
610.304380	-104.995794
610.428648	-105.117820
610.552967	-105.257126
610.677337	-105.412489
610.801757	-105.582148
610.926228	-105.763982
611.050750	-105.955710
611.175323	-106.155093
611.299946	-106.360108
611.424620	-106.569065
611.549345	-106.780609
611.674121	-106.993614
611.798948	-107.207010
611.923826	-107.419536
612.048755	-107.629444
612.173734	-107.834314
612.298765	-108.031046
612.423847	-108.216000
612.548980	-108.385364
612.674165	-108.535772
612.799400	-108.664944
612.924687	-108.772245
613.050025	-108.859029
613.175414	-108.928613
613.300854	-108.985929
613.426346	-109.036991
613.551889	-109.088203
613.677484	-109.145750
613.803130	-109.215182
613.928827	-109.301113
614.054576	-109.407032
614.180377	-109.535193
614.306229	-109.686537
614.432132	-109.860679
614.558087	-110.055865
614.684094	-110.268911
614.810153	-110.495207
614.936263	-110.728815
615.062425	-110.962808
615.188639	-111.189922
615.314904	-111.403591
615.441222	-111.599309
615.567591	-111.775960
615.694012	-111.936800
615.820486	-112.089797
615.947011	-112.247054
616.073588	-112.423474
616.200217	-112.635137
616.326898	-112.897754
616.453632	-113.225472
616.580417	-113.629959
616.707255	-114.119712
616.834144	-114.699425
616.961086	-115.369086
617.088081	-116.122350
617.215127	-116.943771
617.342226	-117.804747
617.469378	-118.658658
617.596581	-119.437936
617.723837	-120.059904
617.851146	-120.449255
617.978507	-120.571767
618.105920	-120.454111
618.233386	-120.170037
618.360905	-119.807067
618.488476	-119.441143
618.616100	-119.127879
618.743777	-118.904469
618.871506	-118.794597
618.999288	-118.812622
619.127123	-118.965983
619.255011	-119.255757
619.382951	-119.675338
619.510945	-120.207020
619.638991	-120.816245
619.767090	-121.444666
619.895243	-122.007228
620.023448	-122.403938
620.151706	-122.554127
620.280017	-122.436416
620.408382	-122.096880
620.536799	-121.616966
620.665270	-121.074978
620.793794	-120.527877
620.922371	-120.011819
621.051002	-119.549799
621.179686	-119.158915
621.308423	-118.854881
621.437213	-118.653986
621.566057	-118.573895
621.694954	-118.634058
621.823905	-118.856314
621.952909	-119.266187
622.081967	-119.895379
622.211079	-120.786213
622.340244	-121.999373
622.469462	-123.626775
622.598735	-125.808245
622.728061	-128.700833
622.857441	-131.881072
622.986874	-132.097941
623.116361	-128.876998
623.245903	-125.728153
623.375498	-123.280169
623.505147	-121.383677
623.634850	-119.889072
623.764606	-118.697421
623.894417	-117.744163
624.024282	-116.984910
624.154201	-116.386386
624.284174	-115.920796
624.414202	-115.562143
624.544283	-115.284189
624.674419	-115.059705
624.804609	-114.861264
624.934853	-114.663290
625.065151	-114.444987
625.195504	-114.193230
625.325911	-113.903919
625.456373	-113.581237
625.586889	-113.235252
625.717460	-112.878983
625.848085	-112.526061
625.978764	-112.189236
626.109498	-111.879837
626.240287	-111.607862
626.371131	-111.382275
626.502029	-111.211146
626.632982	-111.101589
626.763989	-111.059592
626.895052	-111.089830
627.026169	-111.195564
627.157341	-111.378437
627.288568	-111.638205
627.419850	-111.972467
627.551187	-112.376276
627.682579	-112.841592
627.814026	-113.356883
627.945528	-113.906882
628.077085	-114.472888
628.208697	-115.034245
628.340364	-115.571368
628.472087	-116.070156
628.603865	-116.526052
628.735698	-116.945901
628.867586	-117.345732
628.999530	-117.744569
629.131529	-118.155682
629.263584	-118.576696
629.395694	-118.979837
629.527859	-119.305511
629.660080	-119.468358
629.792357	-119.386717
629.924689	-119.027600
630.057077	-118.428892
630.189520	-117.674726
630.322019	-116.852207
630.454574	-116.025214
630.587184	-115.230770
630.719851	-114.486260
630.852573	-113.798009
630.985351	-113.167695
631.118185	-112.595988
631.251075	-112.083796
631.384021	-111.632159
631.517023	-111.241124
631.650081	-110.908239
631.783195	-110.627391
631.916365	-110.388537
632.049592	-110.178660
632.182874	-109.984096
632.316213	-109.793669
632.449608	-109.601908
632.583059	-109.411019
632.716567	-109.230327
632.850131	-109.073456
632.983751	-108.954509
633.117428	-108.884485
633.251161	-108.868885
633.384951	-108.906791
633.518797	-108.991671
633.652700	-109.113931
633.786660	-109.264602
633.920676	-109.439199
634.054749	-109.640160
634.188879	-109.876628
634.323065	-110.161167
634.457308	-110.504199
634.591608	-110.907509
634.725965	-111.358505
634.860379	-111.827409
634.994850	-112.270595
635.129377	-112.643761
635.263962	-112.922591
635.398604	-113.118205
635.533303	-113.274387
635.668058	-113.448462
635.802872	-113.689699
635.937742	-114.024366
636.072669	-114.447083
636.207654	-114.915128
636.342696	-115.346110
636.477796	-115.627899
636.612953	-115.652441
636.748167	-115.364726
636.883439	-114.788272
637.018768	-114.004266
637.154155	-113.110903
637.289599	-112.196629
637.425101	-111.331867
637.560660	-110.569524
637.696277	-109.947631
637.831952	-109.491979
637.967685	-109.218327
638.103475	-109.133565
638.239324	-109.235426
638.375230	-109.510095
638.511194	-109.926805
638.647215	-110.429336
638.783295	-110.927116
638.919433	-111.296702
639.055629	-111.412054
639.191883	-111.203429
639.328195	-110.696872
639.464565	-109.989718
639.600994	-109.193012
639.737481	-108.394777
639.874025	-107.653576
640.010629	-107.005221
640.147290	-106.470109
640.284010	-106.057909
640.420789	-105.769915
640.557625	-105.599962
640.694521	-105.534756
640.831474	-105.554296
640.968487	-105.632983
641.105558	-105.741976
641.242687	-105.852912
641.379876	-105.942184
641.517123	-105.994340
641.654429	-106.003444
641.791793	-105.972027
641.929216	-105.909090
642.066699	-105.828535
642.204240	-105.748353
642.341840	-105.690087
642.479499	-105.677824
642.617217	-105.736671
642.754994	-105.890945
642.892830	-106.162496
643.030726	-106.569553
643.168680	-107.125883
643.306694	-107.840244
643.444767	-108.715803
643.582899	-109.749235
643.721091	-110.929580
643.859342	-112.237017
643.997652	-113.641992
644.136022	-115.105443
644.274451	-116.580401
644.412940	-118.015769
644.551488	-119.363742
644.690096	-120.593436
644.828763	-121.711075
644.967490	-122.778435
645.106277	-123.918547
645.245124	-125.310185
645.384030	-127.192314
645.522997	-129.883948
645.662023	-133.503020
645.801109	-134.792395
645.940255	-130.892104
646.079460	-127.078745
646.218726	-124.244896
646.358052	-122.095624
646.497438	-120.400448
646.636884	-119.014612
646.776391	-117.845565
646.915957	-116.834225
647.055584	-115.944846
647.195271	-115.158495
647.335019	-114.468191
647.474826	-113.874633
647.614695	-113.382229
647.754623	-112.995333
647.894612	-112.714736
648.034662	-112.534317
648.174772	-112.438079
648.314943	-112.398601
648.455174	-112.378238
648.595466	-112.334927
648.735819	-112.233007
648.876233	-112.053936
649.016707	-111.800005
649.157242	-111.488676
649.297838	-111.141453
649.438495	-110.775278
649.579213	-110.400910
649.719992	-110.026731
649.860832	-109.664407
650.001733	-109.332652
650.142695	-109.057010
650.283718	-108.866577
650.424803	-108.789922
650.565949	-108.851954
650.707156	-109.072213
650.848424	-109.464360
650.989754	-110.035949
651.131145	-110.787440
651.272597	-111.708668
651.414111	-112.768857
651.555687	-113.893117
651.697324	-114.918775
651.839022	-115.562930
651.980782	-115.528409
652.122604	-114.775151
652.264488	-113.571197
652.406433	-112.228617
652.548441	-110.940484
652.690510	-109.793919
652.832640	-108.818714
652.974833	-108.017790
653.117088	-107.381479
653.259405	-106.893683
653.401784	-106.534714
653.544224	-106.282897
653.686727	-106.116104
653.829293	-106.013616
653.971920	-105.957897
654.114609	-105.935807
654.257361	-105.938567
654.400175	-105.960492
654.543052	-105.996898
654.685991	-106.042278
654.828992	-106.089972
654.972056	-106.133896
655.115183	-106.172002
655.258372	-106.209726
655.401623	-106.261592
655.544937	-106.349891
655.688314	-106.500628
655.831754	-106.738321
655.975256	-107.080809
656.118822	-107.534324
656.262450	-108.088468
656.406141	-108.711458
656.549894	-109.348058
656.693711	-109.926427
656.837591	-110.379530
656.981534	-110.674118
657.125540	-110.824800
657.269610	-110.879165
657.413742	-110.888175
657.557938	-110.885250
657.702196	-110.882079
657.846519	-110.874623
657.990904	-110.850330
658.135353	-110.790953
658.279866	-110.669729
658.424441	-110.448204
658.569081	-110.082956
658.713784	-109.546204
658.858550	-108.848128
659.003381	-108.040356
659.148274	-107.196087
659.293232	-106.384816
659.438253	-105.657818
659.583339	-105.045847
659.728488	-104.563012
659.873701	-104.211767
660.018978	-103.987190
660.164318	-103.879966
660.309723	-103.877948
660.455192	-103.966030
660.600725	-104.124024
660.746323	-104.322946
660.891984	-104.521229
661.037710	-104.665069
661.183500	-104.698616
661.329354	-104.584757
661.475272	-104.325446
661.621255	-103.964152
661.767303	-103.567260
661.913415	-103.199893
662.059591	-102.910851
662.205833	-102.728278
662.352138	-102.661027
662.498509	-102.701605
662.644944	-102.829260
662.791443	-103.013328
662.938008	-103.217395
663.084638	-103.404216
663.231332	-103.540274
663.378091	-103.598456
663.524915	-103.559159
663.671804	-103.412144
663.818759	-103.160365
663.965778	-102.823517
664.112863	-102.436747
664.260012	-102.043286
664.407227	-101.684884
664.554507	-101.394225
664.701853	-101.191107
664.849264	-101.081847
664.996740	-101.060554
665.144282	-101.111403
665.291889	-101.211574
665.439561	-101.334334
665.587300	-101.451492
665.735103	-101.535032
665.882973	-101.558716
666.030908	-101.501320
666.178909	-101.352488
666.326976	-101.119398
666.475109	-100.829340
666.623307	-100.525076
666.771571	-100.255113
666.919902	-100.064054
667.068298	-99.986663
667.216761	-100.045572
667.365289	-100.251068
667.513884	-100.601470
667.662545	-101.083234
667.811272	-101.671178
667.960065	-102.329354
668.108925	-103.012909
668.257851	-103.670719
668.406843	-104.247178
668.555902	-104.683079
668.705027	-104.920587
668.854219	-104.919401
669.003478	-104.680227
669.152803	-104.254148
669.302195	-103.723470
669.451653	-103.169761
669.601179	-102.651966
669.750771	-102.200433
669.900430	-101.820869
670.050156	-101.501756
670.199949	-101.222530
670.349808	-100.961567
670.499735	-100.702472
670.649729	-100.436956
670.799790	-100.163381
670.949918	-99.882539
671.100114	-99.593588
671.250377	-99.292540
671.400707	-98.974251
671.551104	-98.636724
671.701569	-98.285168
671.852101	-97.933287
672.002700	-97.600890
672.153368	-97.309346
672.304102	-97.077057
672.454905	-96.916417
672.605775	-96.832611
672.756713	-96.823945
672.907718	-96.883322
673.058791	-97.000415
673.209933	-97.164012
673.361142	-97.363706
673.512419	-97.590181
673.663764	-97.833762
673.815177	-98.081994
673.966658	-98.318028
674.118207	-98.522069
674.269825	-98.677045
674.421510	-98.776624
674.573264	-98.830615
674.725086	-98.863346
674.876977	-98.905127
675.028936	-98.980954
675.180963	-99.101206
675.333059	-99.256324
675.485224	-99.416591
675.637457	-99.538851
675.789758	-99.580633
675.942129	-99.517221
676.094568	-99.351094
676.247075	-99.106933
676.399652	-98.817143
676.552298	-98.508782
676.705012	-98.198267
676.857795	-97.892894
677.010648	-97.595202
677.163569	-97.306558
677.316560	-97.028460
677.469619	-96.761812
677.622748	-96.505606
677.775946	-96.256539
677.929214	-96.010411
678.082551	-95.764901
678.235957	-95.522151
678.389432	-95.289737
678.542977	-95.079537
678.696592	-94.905046
678.850276	-94.778320
679.004030	-94.707786
679.157853	-94.697490
679.311746	-94.747503
679.465709	-94.855003
679.619742	-95.015438
679.773844	-95.223079
679.928017	-95.470498
680.082259	-95.746994
680.236571	-96.036826
680.390954	-96.318804
680.545406	-96.569072
680.699929	-96.767653
680.854522	-96.906614
681.009185	-96.994886
681.163918	-97.055752
681.318722	-97.118073
681.473596	-97.205972
681.628540	-97.330950
681.783555	-97.487920
681.938641	-97.655086
682.093797	-97.797281
682.249023	-97.872833
682.404321	-97.842719
682.559689	-97.679457
682.715128	-97.373234
682.870637	-96.934173
683.026218	-96.390800
683.181869	-95.785056
683.337591	-95.164688
683.493385	-94.575230
683.649249	-94.053844
683.805185	-93.625939
683.961191	-93.303965
684.117269	-93.087280
684.273418	-92.962572
684.429639	-92.904956
684.585930	-92.880553
684.742294	-92.851571
684.898728	-92.783970
685.055234	-92.655486
685.211812	-92.460462
685.368461	-92.209224
685.525182	-91.923113
685.681975	-91.628805
685.838839	-91.354387
685.995775	-91.127432
686.152783	-90.974072
686.309863	-90.918109
686.467014	-90.979745
686.624238	-91.173675
686.781534	-91.506241
686.938902	-91.971097
687.096342	-92.542771
687.253854	-93.168825
687.411438	-93.765597
687.569095	-94.229193
687.726824	-94.472094
687.884626	-94.468848
688.042499	-94.267538
688.200446	-93.954454
688.358465	-93.610371
688.516556	-93.290091
688.674720	-93.022554
688.832957	-92.817951
688.991266	-92.673749
689.149649	-92.577710
689.308104	-92.509273
689.466632	-92.441686
689.625233	-92.346916
689.783906	-92.203486
689.942653	-92.004063
690.101473	-91.758140
690.260367	-91.487823
690.419333	-91.219426
690.578372	-90.975939
690.737485	-90.773504
690.896672	-90.622010
691.055931	-90.528279
691.215264	-90.499954
691.374671	-90.548258
691.534151	-90.688669
691.693704	-90.939457
691.853332	-91.318518
692.013033	-91.838998
692.172807	-92.503454
692.332656	-93.295660
692.492578	-94.169500
692.652575	-95.038502
692.812645	-95.780123
692.972789	-96.276257
693.133007	-96.481099
693.293300	-96.451289
693.453666	-96.301379
693.614107	-96.139775
693.774622	-96.039412
693.935211	-96.039537
694.095875	-96.156378
694.256613	-96.390526
694.417426	-96.728042
694.578313	-97.135793
694.739274	-97.553810
694.900311	-97.892194
695.061421	-98.046519
695.222607	-97.939051
695.383868	-97.561341
695.545203	-96.974814
695.706613	-96.269199
695.868098	-95.522433
696.029658	-94.786378
696.191293	-94.090745
696.353003	-93.451670
696.514789	-92.878204
696.676649	-92.375502
696.838585	-91.945699
697.000596	-91.587719
697.162682	-91.296993
697.324844	-91.065646
697.487081	-90.883295
697.649394	-90.738466
697.811782	-90.620219
697.974246	-90.519167
698.136786	-90.427272
698.299401	-90.336555
698.462092	-90.237605
698.624859	-90.119484
698.787702	-89.972133
698.950621	-89.791231
699.113616	-89.583311
699.276686	-89.367978
699.439833	-89.175446
699.603056	-89.040529
699.766355	-88.995989
699.929731	-89.067176
700.093183	-89.268173
700.256711	-89.598362
700.420315	-90.038386
700.583996	-90.545565
700.747754	-91.051410
700.911588	-91.467984
701.075499	-91.710076
701.239486	-91.727850
701.403550	-91.526566
701.567691	-91.156028
701.731909	-90.682469
701.896203	-90.166431
702.060575	-89.654274
702.225024	-89.177429
702.389549	-88.753301
702.554152	-88.386032
702.718832	-88.067638
702.883589	-87.780781
703.048424	-87.504023
703.213335	-87.218847
703.378324	-86.915841
703.543391	-86.597122
703.708535	-86.273875
703.873757	-85.960929
704.039056	-85.671931
704.204433	-85.417231
704.369887	-85.204503
704.535420	-85.040689
704.701030	-84.933386
704.866718	-84.890566
705.032484	-84.918306
705.198328	-85.017148
705.364250	-85.178443
705.530250	-85.382346
705.696328	-85.599589
705.862485	-85.798650
706.028720	-85.957172
706.195033	-86.072080
706.361424	-86.161402
706.527894	-86.256105
706.694442	-86.387544
706.861069	-86.577784
707.027775	-86.836013
707.194559	-87.160735
707.361422	-87.546058
707.528363	-87.989493
707.695384	-88.497959
707.862483	-89.089002
708.029661	-89.786334
708.196918	-90.610972
708.364254	-91.569663
708.531670	-92.641491
708.699164	-93.764749
708.866738	-94.833995
709.034391	-95.728166
709.202123	-96.374923
709.369935	-96.799574
709.537826	-97.099560
709.705796	-97.376556
709.873847	-97.694733
710.041976	-98.077200
710.210186	-98.517743
710.378475	-98.990953
710.546844	-99.454868
710.715292	-99.845613
710.883821	-100.069878
711.052429	-100.012036
711.221118	-99.576098
711.389887	-98.748488
711.558735	-97.617744
711.727664	-96.323109
711.896673	-94.989498
712.065763	-93.698695
712.234932	-92.492111
712.404183	-91.384586
712.573513	-90.378146
712.742924	-89.472139
712.912416	-88.668967
713.081988	-87.975128
713.251641	-87.398488
713.421375	-86.943659
713.591190	-86.607057
713.761085	-86.372962
713.931061	-86.212292
714.101119	-86.085826
714.271257	-85.952941
714.441476	-85.783773
714.611777	-85.568373
714.782159	-85.316291
714.952622	-85.047161
715.123166	-84.779769
715.293792	-84.526546
715.464499	-84.295006
715.635288	-84.092883
715.806158	-83.932370
715.977110	-83.830423
716.148143	-83.804945
716.319259	-83.868842
716.490456	-84.024199
716.661735	-84.257948
716.833096	-84.539633
717.004538	-84.821813
717.176063	-85.044725
717.347670	-85.147063
717.519359	-85.083036
717.691130	-84.840557
717.862984	-84.449754
718.034920	-83.974291
718.206938	-83.490571
718.379039	-83.067470
718.551222	-82.754140
718.723488	-82.575221
718.895836	-82.529840
719.068267	-82.592604
719.240781	-82.718311
719.413377	-82.854095
719.586057	-82.959500
719.758819	-83.025348
719.931664	-83.077113
720.104593	-83.159665
720.277604	-83.315796
720.450699	-83.571987
720.623876	-83.935534
720.797137	-84.400784
720.970482	-84.960887
721.143910	-85.620159
721.317421	-86.400515
721.491016	-87.336965
721.664694	-88.461017
721.838456	-89.771304
722.012302	-91.187841
722.186231	-92.502353
722.360244	-93.412165
722.534342	-93.735296
722.708523	-93.565893
722.882788	-93.096337
723.057137	-92.424555
723.231570	-91.574557
723.406088	-90.583529
723.580689	-89.520896
723.755375	-88.450922
723.930146	-87.405846
724.105000	-86.392549
724.279940	-85.415020
724.454963	-84.490592
724.630072	-83.650091
724.805265	-82.926481
724.980543	-82.342484
725.155905	-81.903348
725.331353	-81.595438
