# 2022-03-21_21.33.54
# shape = sech2
# FWHM_ps = 0.1
# carrier_nm = 1542
# frep_MHz = 12126
# pow_mW = 8000
# GDD = 0.0
# propa_len = 0.098
# untap_len = 0.01
# taper_len = 0.038
# waist_len = 0.02
# uptap_len = 0.02
# untap_scale = 1.0
# waist_scale = 0.38421052631578956
# workingDir = NL_20110305_12 (Spirou)
# axis = slow
# window_ps = 10.0
# steps = 200
# points = 21700
# 
# wavelength [nm]	 power spectral density [dB]
600.043425	-146.593791
600.163550	-146.596878
600.283723	-146.615148
600.403943	-146.634477
600.524212	-146.635694
600.644529	-146.597116
600.764895	-146.502509
600.885308	-146.349760
601.005770	-146.155562
601.126280	-145.953366
601.246839	-145.786281
601.367446	-145.699332
601.488101	-145.734240
601.608804	-145.927089
601.729557	-146.307027
601.850357	-146.892563
601.971206	-147.678960
602.092104	-148.603853
602.213050	-149.476598
602.334045	-149.921837
602.455089	-149.569605
602.576181	-148.470097
602.697322	-147.022507
602.818511	-145.559730
602.939749	-144.233078
603.061036	-143.085644
603.182372	-142.116651
603.303757	-141.311499
603.425191	-140.653483
603.546673	-140.127998
603.668204	-139.723791
603.789785	-139.433086
603.911414	-139.251224
604.033092	-139.176116
604.154820	-139.207608
604.276596	-139.346805
604.398422	-139.595336
604.520297	-139.954522
604.642220	-140.424354
604.764193	-141.002181
604.886216	-141.681035
605.008287	-142.447620
605.130408	-143.280412
605.252578	-144.149069
605.374798	-145.017278
605.497066	-145.851127
605.619385	-146.632125
605.741752	-147.368605
605.864169	-148.097065
605.986636	-148.869988
606.109152	-149.732113
606.231718	-150.681779
606.354333	-151.601704
606.476998	-152.174540
606.599712	-151.979901
606.722476	-150.938006
606.845290	-149.430341
606.968154	-147.858118
607.091067	-146.425517
607.214030	-145.200953
607.337043	-144.195387
607.460106	-143.400700
607.583219	-142.804572
607.706381	-142.395771
607.829594	-142.165984
607.952856	-142.110542
608.076169	-142.228922
608.199531	-142.525353
608.322944	-143.009722
608.446407	-143.699059
608.569920	-144.620117
608.693483	-145.814180
608.817096	-147.346584
608.940759	-149.327171
609.064473	-151.959948
609.188237	-155.688747
609.312051	-161.758970
609.435916	-170.340527
609.559831	-161.839540
609.683796	-157.098282
609.807812	-154.488797
609.931878	-152.931072
610.055995	-152.033872
610.180162	-151.620114
610.304380	-151.600125
610.428648	-151.927674
610.552967	-152.581902
610.677337	-153.559155
610.801757	-154.869020
610.926228	-156.532241
611.050750	-158.579632
611.175323	-161.053534
611.299946	-164.019043
611.424620	-167.582160
611.549345	-171.539242
611.674121	-172.328750
611.798948	-168.163368
611.923826	-163.967072
612.048755	-160.608526
612.173734	-157.930024
612.298765	-155.785250
612.423847	-154.077568
612.548980	-152.742046
612.674165	-151.733887
612.799400	-151.021823
612.924687	-150.583820
613.050025	-150.403700
613.175414	-150.467675
613.300854	-150.759509
613.426346	-151.252444
613.551889	-151.895881
613.677484	-152.598207
613.803130	-153.220492
613.928827	-153.615500
614.054576	-153.720918
614.180377	-153.617761
614.306229	-153.471312
614.432132	-153.424744
614.558087	-153.524066
614.684094	-153.645807
614.810153	-153.419167
614.936263	-152.388820
615.062425	-150.544620
615.188639	-148.338911
615.314904	-146.165576
615.441222	-144.197951
615.567591	-142.481862
615.694012	-141.014372
615.820486	-139.777895
615.947011	-138.752297
616.073588	-137.918733
616.200217	-137.260707
616.326898	-136.764365
616.453632	-136.418730
616.580417	-136.216112
616.707255	-136.152697
616.834144	-136.229301
616.961086	-136.452171
617.088081	-136.833881
617.215127	-137.394422
617.342226	-138.162802
617.469378	-139.179687
617.596581	-140.501694
617.723837	-142.206998
617.851146	-144.394123
617.978507	-147.113841
618.105920	-149.898039
618.233386	-150.688252
618.360905	-148.835309
618.488476	-146.610720
618.616100	-144.902038
618.743777	-143.739604
618.871506	-143.032906
618.999288	-142.699301
619.127123	-142.667985
619.255011	-142.863769
619.382951	-143.185092
619.510945	-143.484484
619.638991	-143.578821
619.767090	-143.324000
619.895243	-142.711516
620.023448	-141.865645
620.151706	-140.944449
620.280017	-140.065960
620.408382	-139.297544
620.536799	-138.672271
620.665270	-138.205113
620.793794	-137.902558
620.922371	-137.766984
621.051002	-137.798037
621.179686	-137.992640
621.308423	-138.344588
621.437213	-138.844332
621.566057	-139.479449
621.694954	-140.236465
621.823905	-141.104722
621.952909	-142.082595
622.081967	-143.185285
622.211079	-144.452206
622.340244	-145.952002
622.469462	-147.783403
622.598735	-150.060251
622.728061	-152.797782
622.857441	-155.324427
622.986874	-155.638762
623.116361	-153.873583
623.245903	-152.051567
623.375498	-150.822429
623.505147	-150.197161
623.634850	-150.077737
623.764606	-150.327327
623.894417	-150.736804
624.024282	-151.009177
624.154201	-150.883046
624.284174	-150.346612
624.414202	-149.614448
624.544283	-148.893853
624.674419	-148.261227
624.804609	-147.672994
624.934853	-147.022426
625.065151	-146.219025
625.195504	-145.258788
625.325911	-144.226084
625.456373	-143.234543
625.586889	-142.375318
625.717460	-141.702501
625.848085	-141.239999
625.978764	-140.991844
626.109498	-140.949026
626.240287	-141.092241
626.371131	-141.391725
626.502029	-141.805922
626.632982	-142.281410
626.763989	-142.757577
626.895052	-143.179326
627.026169	-143.516539
627.157341	-143.780826
627.288568	-144.028118
627.419850	-144.347189
627.551187	-144.847022
627.682579	-145.656785
627.814026	-146.949123
627.945528	-149.012217
628.077085	-152.493407
628.208697	-159.785980
628.340364	-165.625875
628.472087	-153.838444
628.603865	-149.025369
628.735698	-146.126991
628.867586	-144.179914
628.999530	-142.805320
629.131529	-141.788489
629.263584	-140.975200
629.395694	-140.247514
629.527859	-139.530454
629.660080	-138.802868
629.792357	-138.091898
629.924689	-137.450572
630.057077	-136.934617
630.189520	-136.590230
630.322019	-136.452491
630.454574	-136.549083
630.587184	-136.905177
630.719851	-137.547356
630.852573	-138.504857
630.985351	-139.803325
631.118185	-141.433844
631.251075	-143.245270
631.384021	-144.706135
631.517023	-144.985192
631.650081	-144.067915
631.783195	-142.787096
631.916365	-141.692408
632.049592	-140.942077
632.182874	-140.539741
632.316213	-140.439332
632.449608	-140.565598
632.583059	-140.803528
632.716567	-140.987387
632.850131	-140.931443
632.983751	-140.526671
633.117428	-139.818409
633.251161	-138.956892
633.384951	-138.089504
633.518797	-137.308715
633.652700	-136.655852
633.786660	-136.139833
633.920676	-135.751900
634.054749	-135.474322
634.188879	-135.285468
634.323065	-135.163345
634.457308	-135.088722
634.591608	-135.047866
634.725965	-135.034334
634.860379	-135.049117
634.994850	-135.098913
635.129377	-135.192971
635.263962	-135.339369
635.398604	-135.541488
635.533303	-135.795079
635.668058	-136.086096
635.802872	-136.389849
635.937742	-136.673046
636.072669	-136.900837
636.207654	-137.049010
636.342696	-137.116418
636.477796	-137.129396
636.612953	-137.134574
636.748167	-137.185447
636.883439	-137.331121
637.018768	-137.611291
637.154155	-138.056669
637.289599	-138.692398
637.425101	-139.542433
637.560660	-140.633397
637.696277	-141.995597
637.831952	-143.653825
637.967685	-145.581795
638.103475	-147.545674
638.239324	-148.825988
638.375230	-148.633583
638.511194	-147.380837
638.647215	-145.977776
638.783295	-144.849956
638.919433	-144.102061
639.055629	-143.745724
639.191883	-143.779383
639.328195	-144.207059
639.464565	-145.030322
639.600994	-146.196648
639.737481	-147.425287
639.874025	-147.920356
640.010629	-146.901022
640.147290	-144.870532
640.284010	-142.715876
640.420789	-140.803216
640.557625	-139.196496
640.694521	-137.876885
640.831474	-136.814482
640.968487	-135.985605
641.105558	-135.375335
641.242687	-134.976730
641.379876	-134.789710
641.517123	-134.820115
641.654429	-135.078329
641.791793	-135.575816
641.929216	-136.315444
642.066699	-137.265268
642.204240	-138.295396
642.341840	-139.078549
642.479499	-139.135691
642.617217	-138.293465
642.754994	-136.917979
642.892830	-135.448386
643.030726	-134.110723
643.168680	-132.975709
643.306694	-132.048565
643.444767	-131.312997
643.582899	-130.747849
643.721091	-130.332860
643.859342	-130.050677
643.997652	-129.887844
644.136022	-129.835689
644.274451	-129.891304
644.412940	-130.058422
644.551488	-130.347994
644.690096	-130.778401
644.828763	-131.375542
644.967490	-132.173425
645.106277	-133.216356
645.245124	-134.564537
645.384030	-136.306757
645.522997	-138.589337
645.662023	-141.689199
645.801109	-146.228235
645.940255	-153.460145
646.079460	-153.015387
646.218726	-147.185446
646.358052	-143.885005
646.497438	-141.829573
646.636884	-140.432123
646.776391	-139.414891
646.915957	-138.628355
647.055584	-137.989602
647.195271	-137.455967
647.335019	-137.010874
647.474826	-136.655455
647.614695	-136.403697
647.754623	-136.279783
647.894612	-136.316914
648.034662	-136.557780
648.174772	-137.057845
648.314943	-137.894203
648.455174	-139.186600
648.595466	-141.150440
648.735819	-144.258765
648.876233	-149.966140
649.016707	-161.731896
649.157242	-148.778259
649.297838	-143.147604
649.438495	-139.866373
649.579213	-137.676587
649.719992	-136.154955
649.860832	-135.110126
650.001733	-134.439911
650.142695	-134.080458
650.283718	-133.980530
650.424803	-134.082710
650.565949	-134.306107
650.707156	-134.534333
650.848424	-134.625831
650.989754	-134.465227
651.131145	-134.029028
651.272597	-133.391970
651.414111	-132.663643
651.555687	-131.927343
651.697324	-131.221717
651.839022	-130.551387
651.980782	-129.905864
652.122604	-129.276456
652.264488	-128.666376
652.406433	-128.092229
652.548441	-127.578813
652.690510	-127.151596
652.832640	-126.830464
652.974833	-126.625877
653.117088	-126.536845
653.259405	-126.549897
653.401784	-126.639084
653.544224	-126.768297
653.686727	-126.897920
653.829293	-126.996411
653.971920	-127.053088
654.114609	-127.084756
654.257361	-127.131618
654.400175	-127.245797
654.543052	-127.479739
654.685991	-127.878583
654.828992	-128.474988
654.972056	-129.280560
655.115183	-130.263689
655.258372	-131.300977
655.401623	-132.117856
655.544937	-132.354884
655.688314	-131.887362
655.831754	-130.976432
655.975256	-129.967479
656.118822	-129.062170
656.262450	-128.329933
656.406141	-127.770993
656.549894	-127.355268
656.693711	-127.041353
656.837591	-126.787357
656.981534	-126.559057
657.125540	-126.335767
657.269610	-126.112222
657.413742	-125.895742
657.557938	-125.700296
657.702196	-125.540225
657.846519	-125.425514
657.990904	-125.358782
658.135353	-125.333305
658.279866	-125.331578
658.424441	-125.325276
658.569081	-125.278923
658.713784	-125.159501
658.858550	-124.950255
659.003381	-124.661087
659.148274	-124.327535
659.293232	-123.998869
659.438253	-123.723568
659.583339	-123.539233
659.728488	-123.468042
659.873701	-123.515315
660.018978	-123.668936
660.164318	-123.899238
660.309723	-124.161278
660.455192	-124.402764
660.600725	-124.578706
660.746323	-124.666580
660.891984	-124.670024
661.037710	-124.605343
661.183500	-124.479407
661.329354	-124.274544
661.475272	-123.952555
661.621255	-123.480180
661.767303	-122.860781
661.913415	-122.145180
662.059591	-121.412697
662.205833	-120.742561
662.352138	-120.196609
662.498509	-119.816002
662.644944	-119.624980
662.791443	-119.635764
662.938008	-119.852148
663.084638	-120.271226
663.231332	-120.883379
663.378091	-121.670655
663.524915	-122.603776
663.671804	-123.638376
663.818759	-124.712087
663.965778	-125.745533
664.112863	-126.650600
664.260012	-127.346022
664.407227	-127.774213
664.554507	-127.911617
664.701853	-127.770540
664.849264	-127.394451
664.996740	-126.847387
665.144282	-126.199424
665.291889	-125.513790
665.439561	-124.839957
665.587300	-124.212349
665.735103	-123.651807
665.882973	-123.167507
666.030908	-122.758620
666.178909	-122.415942
666.326976	-122.124025
666.475109	-121.864193
666.623307	-121.618478
666.771571	-121.373814
666.919902	-121.125086
667.068298	-120.875451
667.216761	-120.633389
667.365289	-120.407688
667.513884	-120.202544
667.662545	-120.014840
667.811272	-119.834820
667.960065	-119.650289
668.108925	-119.453050
668.257851	-119.244722
668.406843	-119.038814
668.555902	-118.857874
668.705027	-118.727376
668.854219	-118.669186
669.003478	-118.696521
669.152803	-118.810737
669.302195	-118.999640
669.451653	-119.237405
669.601179	-119.487122
669.750771	-119.707429
669.900430	-119.863107
670.050156	-119.935764
670.199949	-119.928077
670.349808	-119.858237
670.499735	-119.748341
670.649729	-119.614095
670.799790	-119.460886
670.949918	-119.286975
671.100114	-119.091354
671.250377	-118.881931
671.400707	-118.679573
671.551104	-118.516112
671.701569	-118.428046
671.852101	-118.449302
672.002700	-118.605219
672.153368	-118.907666
672.304102	-119.349832
672.454905	-119.899603
672.605775	-120.493521
672.756713	-121.039945
672.907718	-121.444927
673.058791	-121.659209
673.209933	-121.709372
673.361142	-121.678120
673.512419	-121.654775
673.663764	-121.699279
673.815177	-121.831832
673.966658	-122.038144
674.118207	-122.282854
674.269825	-122.529702
674.421510	-122.764311
674.573264	-123.008378
674.725086	-123.316320
674.876977	-123.758860
675.028936	-124.405854
675.180963	-125.314455
675.333059	-126.518388
675.485224	-128.006010
675.637457	-129.667875
675.789758	-131.210151
675.942129	-132.160579
676.094568	-132.206754
676.247075	-131.484350
676.399652	-130.292408
676.552298	-128.848178
676.705012	-127.323750
676.857795	-125.876092
677.010648	-124.623102
677.163569	-123.629221
677.316560	-122.909113
677.469619	-122.431915
677.622748	-122.118128
677.775946	-121.838177
677.929214	-121.440390
678.082551	-120.826977
678.235957	-120.023070
678.389432	-119.154002
678.542977	-118.361690
678.696592	-117.750442
678.850276	-117.379602
679.004030	-117.274077
679.157853	-117.432480
679.311746	-117.826835
679.465709	-118.394264
679.619742	-119.027777
679.773844	-119.587202
679.928017	-119.955667
680.082259	-120.116691
680.236571	-120.165701
680.390954	-120.239214
680.545406	-120.444443
680.699929	-120.834714
680.854522	-121.412028
681.009185	-122.134541
681.163918	-122.925421
681.318722	-123.690710
681.473596	-124.349447
681.628540	-124.859993
681.783555	-125.220193
681.938641	-125.448184
682.093797	-125.573164
682.249023	-125.642007
682.404321	-125.716745
682.559689	-125.843615
682.715128	-125.998194
682.870637	-126.030468
683.026218	-125.688453
683.181869	-124.820710
683.337591	-123.564349
683.493385	-122.210546
683.649249	-120.984254
683.805185	-119.994052
683.961191	-119.271182
684.117269	-118.805931
684.273418	-118.565443
684.429639	-118.500206
684.585930	-118.547061
684.742294	-118.634836
684.898728	-118.696608
685.055234	-118.687384
685.211812	-118.598287
685.368461	-118.456332
685.525182	-118.308078
685.681975	-118.195867
685.838839	-118.134909
685.995775	-118.093733
686.152783	-117.983979
686.309863	-117.682453
686.467014	-117.105880
686.624238	-116.287906
686.781534	-115.365229
686.938902	-114.493603
687.096342	-113.789849
687.253854	-113.323926
687.411438	-113.131532
687.569095	-113.225309
687.726824	-113.598204
687.884626	-114.218024
688.042499	-115.013656
688.200446	-115.859659
688.358465	-116.584569
688.516556	-117.038019
688.674720	-117.184947
688.832957	-117.110856
688.991266	-116.926971
689.149649	-116.695320
689.308104	-116.427253
689.466632	-116.122296
689.625233	-115.804124
689.783906	-115.529215
689.942653	-115.371464
690.101473	-115.402962
690.260367	-115.684483
690.419333	-116.265880
690.578372	-117.191747
690.737485	-118.509393
690.896672	-120.279254
691.055931	-122.591628
691.215264	-125.602556
691.374671	-129.636296
691.534151	-135.583998
691.693704	-146.315090
691.853332	-140.418034
692.013033	-134.446081
692.172807	-130.897827
692.332656	-128.298176
692.492578	-126.276093
692.652575	-124.721513
692.812645	-123.586161
692.972789	-122.833021
693.133007	-122.423473
693.293300	-122.311550
693.453666	-122.437974
693.614107	-122.724924
693.774622	-123.077699
693.935211	-123.399152
694.095875	-123.606949
694.256613	-123.623494
694.417426	-123.333837
694.578313	-122.589072
694.739274	-121.333129
694.900311	-119.710931
695.061421	-117.972183
695.222607	-116.319266
695.383868	-114.863752
695.545203	-113.651403
695.706613	-112.692262
695.868098	-111.979094
696.029658	-111.496688
696.191293	-111.226212
696.353003	-111.147294
696.514789	-111.239264
696.676649	-111.482345
696.838585	-111.859010
697.000596	-112.355011
697.162682	-112.958824
697.324844	-113.657640
697.487081	-114.428155
697.649394	-115.222012
697.811782	-115.951886
697.974246	-116.497278
698.136786	-116.754074
698.299401	-116.707657
698.462092	-116.449962
698.624859	-116.117279
698.787702	-115.822905
698.950621	-115.632628
699.113616	-115.568982
699.276686	-115.621751
699.439833	-115.756817
699.603056	-115.924808
699.766355	-116.073054
699.929731	-116.161235
700.093183	-116.174916
700.256711	-116.128528
700.420315	-116.056121
700.583996	-115.997630
700.747754	-115.989698
700.911588	-116.064143
701.075499	-116.251865
701.239486	-116.588688
701.403550	-117.121087
701.567691	-117.912189
701.731909	-119.051281
701.896203	-120.674024
702.060575	-123.009038
702.225024	-126.476018
702.389549	-131.468712
702.554152	-132.324787
702.718832	-127.451630
702.883589	-123.949529
703.048424	-121.679137
703.213335	-120.178234
703.378324	-119.190343
703.543391	-118.561755
703.708535	-118.188654
703.873757	-117.993490
704.039056	-117.914715
704.204433	-117.904708
704.369887	-117.933446
704.535420	-117.993848
704.701030	-118.103463
704.866718	-118.299922
705.032484	-118.632861
705.198328	-119.157218
705.364250	-119.930813
705.530250	-121.016563
705.696328	-122.489610
705.862485	-124.451881
706.028720	-127.056491
706.195033	-130.493719
706.361424	-134.253569
706.527894	-134.160091
706.694442	-130.572037
706.861069	-127.346059
707.027775	-124.797988
707.194559	-122.705154
707.361422	-120.909639
707.528363	-119.323713
707.695384	-117.907894
707.862483	-116.656502
708.029661	-115.585756
708.196918	-114.722511
708.364254	-114.094686
708.531670	-113.723704
708.699164	-113.616973
708.866738	-113.756520
709.034391	-114.079526
709.202123	-114.453832
709.369935	-114.680462
709.537826	-114.584546
709.705796	-114.160190
709.873847	-113.579933
710.041976	-113.054066
710.210186	-112.730284
710.378475	-112.685592
710.546844	-112.949435
710.715292	-113.520275
710.883821	-114.368310
711.052429	-115.426036
711.221118	-116.573900
711.389887	-117.643146
711.558735	-118.467905
711.727664	-118.966251
711.896673	-119.150842
712.065763	-119.051922
712.234932	-118.675169
712.404183	-118.051781
712.573513	-117.292103
712.742924	-116.560760
712.912416	-116.016474
713.081988	-115.783914
713.251641	-115.959775
713.421375	-116.626828
713.591190	-117.847818
713.761085	-119.561626
713.931061	-121.135056
714.101119	-121.010968
714.271257	-119.098073
714.441476	-116.939291
714.611777	-115.199713
714.782159	-113.927414
714.952622	-113.033717
715.123166	-112.420552
715.293792	-112.011337
715.464499	-111.763909
715.635288	-111.674352
715.806158	-111.769484
715.977110	-112.090914
716.148143	-112.675945
716.319259	-113.533750
716.490456	-114.603054
716.661735	-115.676460
716.833096	-116.357986
717.004538	-116.300501
717.176063	-115.605659
717.347670	-114.670239
717.519359	-113.782766
717.691130	-113.046871
717.862984	-112.459584
718.034920	-111.971383
718.206938	-111.517543
718.379039	-111.040622
718.551222	-110.511651
718.723488	-109.942855
718.895836	-109.382739
719.068267	-108.897362
719.240781	-108.551190
719.413377	-108.396218
719.586057	-108.469118
719.758819	-108.792296
719.931664	-109.375121
720.104593	-110.212694
720.277604	-111.280323
720.450699	-112.523082
720.623876	-113.843345
720.797137	-115.097265
720.970482	-116.119169
721.143910	-116.778504
721.317421	-117.029577
721.491016	-116.905684
721.664694	-116.470900
721.838456	-115.780091
722.012302	-114.873803
722.186231	-113.800521
722.360244	-112.636353
722.534342	-111.478517
722.708523	-110.421069
722.882788	-109.535730
723.057137	-108.866433
