# 2022-03-21_16.26.40
# shape = sech2
# FWHM_ps = 0.1
# carrier_nm = 1542
# frep_MHz = 12126
# pow_mW = 8000
# GDD = 0.0
# propa_len = 0.10555555555555557
# untap_len = 0.01
# taper_len = 0.04555555555555556
# waist_len = 0.02
# uptap_len = 0.02
# untap_scale = 1.0
# waist_scale = 0.26666666666666666
# workingDir = NL_20110305_12 (Spirou)
# axis = slow
# window_ps = 10.0
# steps = 200
# points = 21700
# 
# wavelength [nm]	 power spectral density [dB]
600.043425	-73.762306
600.163550	-73.727357
600.283723	-73.703034
600.403943	-73.686776
600.524212	-73.676973
600.644529	-73.671244
600.764895	-73.666992
600.885308	-73.662228
601.005770	-73.655906
601.126280	-73.647898
601.246839	-73.638787
601.367446	-73.629919
601.488101	-73.623143
601.608804	-73.620846
601.729557	-73.625091
601.850357	-73.637263
601.971206	-73.657863
602.092104	-73.686732
602.213050	-73.722968
602.334045	-73.765053
602.455089	-73.811026
602.576181	-73.859147
602.697322	-73.908090
602.818511	-73.957057
602.939749	-74.005663
603.061036	-74.054430
603.182372	-74.105082
603.303757	-74.160091
603.425191	-74.221949
603.546673	-74.292279
603.668204	-74.372110
603.789785	-74.461869
603.911414	-74.561652
604.033092	-74.670895
604.154820	-74.788169
604.276596	-74.911597
604.398422	-75.039412
604.520297	-75.170382
604.642220	-75.304095
604.764193	-75.441009
604.886216	-75.582579
605.008287	-75.731145
605.130408	-75.889399
605.252578	-76.060190
605.374798	-76.245683
605.497066	-76.447203
605.619385	-76.665282
605.741752	-76.899450
605.864169	-77.148170
605.986636	-77.409228
606.109152	-77.680065
606.231718	-77.958414
606.354333	-78.242342
606.476998	-78.531010
606.599712	-78.825649
606.722476	-79.129699
606.845290	-79.448000
606.968154	-79.786471
607.091067	-80.151536
607.214030	-80.549506
607.337043	-80.986255
607.460106	-81.466496
607.583219	-81.993106
607.706381	-82.567302
607.829594	-83.187373
607.952856	-83.849201
608.076169	-84.546396
608.199531	-85.272757
608.322944	-86.023401
608.446407	-86.795758
608.569920	-87.590562
608.693483	-88.409296
608.817096	-89.250536
608.940759	-90.100117
609.064473	-90.915267
609.188237	-91.602491
609.312051	-92.009452
609.435916	-91.978616
609.559831	-91.463872
609.683796	-90.577910
609.807812	-89.502484
609.931878	-88.386114
610.055995	-87.316510
610.180162	-86.334338
610.304380	-85.451204
610.428648	-84.662311
610.552967	-83.955741
610.677337	-83.318678
610.801757	-82.738478
610.926228	-82.201660
611.050750	-81.694954
611.175323	-81.207636
611.299946	-80.733264
611.424620	-80.268891
611.549345	-79.814277
611.674121	-79.371210
611.798948	-78.944118
611.923826	-78.538008
612.048755	-78.157564
612.173734	-77.805556
612.298765	-77.483188
612.423847	-77.190350
612.548980	-76.925809
612.674165	-76.687107
612.799400	-76.470289
612.924687	-76.270576
613.050025	-76.083290
613.175414	-75.904759
613.300854	-75.731995
613.426346	-75.562070
613.551889	-75.393045
613.677484	-75.225399
613.803130	-75.061848
613.928827	-74.905883
614.054576	-74.760605
614.180377	-74.628840
614.306229	-74.513631
614.432132	-74.417795
614.558087	-74.342840
614.684094	-74.288741
614.810153	-74.254237
614.936263	-74.237095
615.062425	-74.234652
615.188639	-74.243914
615.314904	-74.261872
615.441222	-74.285599
615.567591	-74.312915
615.694012	-74.343006
615.820486	-74.376519
615.947011	-74.415081
616.073588	-74.461179
616.200217	-74.518147
616.326898	-74.589963
616.453632	-74.680197
616.580417	-74.791674
616.707255	-74.926289
616.834144	-75.085430
616.961086	-75.269835
617.088081	-75.478889
617.215127	-75.710704
617.342226	-75.962496
617.469378	-76.231543
617.596581	-76.515468
617.723837	-76.811828
617.851146	-77.119075
617.978507	-77.437147
618.105920	-77.768865
618.233386	-78.119773
618.360905	-78.497764
618.488476	-78.912221
618.616100	-79.374008
618.743777	-79.896230
618.871506	-80.493921
618.999288	-81.184529
619.127123	-81.988392
619.255011	-82.929666
619.382951	-84.037788
619.510945	-85.353900
619.638991	-86.941883
619.767090	-88.907773
619.895243	-91.444473
620.023448	-94.965570
620.151706	-100.600584
620.280017	-108.746559
620.408382	-100.612391
620.536799	-95.261665
620.665270	-91.938376
620.793794	-89.531580
620.922371	-87.627955
621.051002	-86.035859
621.179686	-84.652732
621.308423	-83.418914
621.437213	-82.298760
621.566057	-81.272102
621.694954	-80.328767
621.823905	-79.462475
621.952909	-78.668603
622.081967	-77.942902
622.211079	-77.281970
622.340244	-76.682286
622.469462	-76.140284
622.598735	-75.651600
622.728061	-75.211066
622.857441	-74.813029
622.986874	-74.451950
623.116361	-74.121990
623.245903	-73.816859
623.375498	-73.530443
623.505147	-73.257723
623.634850	-72.994577
623.764606	-72.737822
623.894417	-72.485200
624.024282	-72.235658
624.154201	-71.989658
624.284174	-71.749082
624.414202	-71.516495
624.544283	-71.294310
624.674419	-71.084702
624.804609	-70.889942
624.934853	-70.712125
625.065151	-70.552562
625.195504	-70.411555
625.325911	-70.288742
625.456373	-70.183355
625.586889	-70.093968
625.717460	-70.018759
625.848085	-69.955629
625.978764	-69.902418
626.109498	-69.856865
626.240287	-69.817228
626.371131	-69.782504
626.502029	-69.752228
626.632982	-69.726462
626.763989	-69.705928
626.895052	-69.691966
627.026169	-69.686286
627.157341	-69.690858
627.288568	-69.707889
627.419850	-69.739500
627.551187	-69.787682
627.682579	-69.853980
627.814026	-69.939353
627.945528	-70.044226
628.077085	-70.168294
628.208697	-70.310706
628.340364	-70.469911
628.472087	-70.643935
628.603865	-70.830523
628.735698	-71.027195
628.867586	-71.231704
628.999530	-71.442279
629.131529	-71.657704
629.263584	-71.877499
629.395694	-72.102261
629.527859	-72.333924
629.660080	-72.575961
629.792357	-72.832778
629.924689	-73.109471
630.057077	-73.411696
630.189520	-73.745688
630.322019	-74.118261
630.454574	-74.536986
630.587184	-75.009876
630.719851	-75.544688
630.852573	-76.150125
630.985351	-76.835914
631.118185	-77.614125
631.251075	-78.499817
631.384021	-79.511285
631.517023	-80.672150
631.650081	-82.015734
631.783195	-83.591480
631.916365	-85.474678
632.049592	-87.776985
632.182874	-90.641638
632.316213	-93.996063
632.449608	-95.983312
632.583059	-93.980563
632.716567	-90.859357
632.850131	-88.247495
632.983751	-86.163603
633.117428	-84.459701
633.251161	-83.023274
633.384951	-81.779346
633.518797	-80.678645
633.652700	-79.687640
633.786660	-78.784122
633.920676	-77.952952
634.054749	-77.183734
634.188879	-76.469510
634.323065	-75.804827
634.457308	-75.185601
634.591608	-74.608589
634.725965	-74.071472
634.860379	-73.571903
634.994850	-73.107425
635.129377	-72.675795
635.263962	-72.275281
635.398604	-71.904073
635.533303	-71.560120
635.668058	-71.241386
635.802872	-70.946259
635.937742	-70.673364
636.072669	-70.421137
636.207654	-70.188119
636.342696	-69.973068
636.477796	-69.774759
636.612953	-69.592364
636.748167	-69.425328
636.883439	-69.272924
637.018768	-69.134425
637.154155	-69.009169
637.289599	-68.896952
637.425101	-68.797537
637.560660	-68.710382
637.696277	-68.634921
637.831952	-68.570757
637.967685	-68.517434
638.103475	-68.474317
638.239324	-68.440732
638.375230	-68.416267
638.511194	-68.400855
638.647215	-68.394614
638.783295	-68.397745
638.919433	-68.410331
639.055629	-68.432439
639.191883	-68.464856
639.328195	-68.508856
639.464565	-68.565760
639.600994	-68.636809
639.737481	-68.723222
639.874025	-68.826347
640.010629	-68.947695
640.147290	-69.088670
640.284010	-69.250745
640.420789	-69.435326
640.557625	-69.643522
640.694521	-69.876319
640.831474	-70.134715
640.968487	-70.419515
641.105558	-70.730943
641.242687	-71.069318
641.379876	-71.434961
641.517123	-71.828003
641.654429	-72.248077
641.791793	-72.694641
641.929216	-73.167665
642.066699	-73.667664
642.204240	-74.195354
642.341840	-74.751890
642.479499	-75.339095
642.617217	-75.959991
642.754994	-76.619388
642.892830	-77.324690
643.030726	-78.085616
643.168680	-78.914189
643.306694	-79.826422
643.444767	-80.844493
643.582899	-81.998215
643.721091	-83.321956
643.859342	-84.850137
643.997652	-86.593560
644.136022	-88.445920
644.274451	-89.925288
644.412940	-90.088098
644.551488	-88.714814
644.690096	-86.708222
644.828763	-84.727861
644.967490	-82.962072
645.106277	-81.423412
645.245124	-80.083149
645.384030	-78.908434
645.522997	-77.870431
645.662023	-76.946392
645.801109	-76.119119
645.940255	-75.374773
646.079460	-74.701753
646.218726	-74.090621
646.358052	-73.533497
646.497438	-73.024297
646.636884	-72.557753
646.776391	-72.128999
646.915957	-71.733908
647.055584	-71.369295
647.195271	-71.032590
647.335019	-70.721515
647.474826	-70.434042
647.614695	-70.168447
647.754623	-69.923298
647.894612	-69.697800
648.034662	-69.491172
648.174772	-69.302680
648.314943	-69.131835
648.455174	-68.978702
648.595466	-68.843323
648.735819	-68.725233
648.876233	-68.623749
649.016707	-68.538508
649.157242	-68.469648
649.297838	-68.417118
649.438495	-68.380275
649.579213	-68.358213
649.719992	-68.350475
649.860832	-68.356683
650.001733	-68.376102
650.142695	-68.407735
650.283718	-68.450635
650.424803	-68.503814
650.565949	-68.566342
650.707156	-68.637460
650.848424	-68.716434
650.989754	-68.802505
651.131145	-68.895404
651.272597	-68.994906
651.414111	-69.101067
651.555687	-69.213855
651.697324	-69.333557
651.839022	-69.460716
651.980782	-69.596184
652.122604	-69.741331
652.264488	-69.897389
652.406433	-70.065207
652.548441	-70.245807
652.690510	-70.440602
652.832640	-70.651127
652.974833	-70.878047
653.117088	-71.121897
653.259405	-71.383273
653.401784	-71.662912
653.544224	-71.960758
653.686727	-72.276144
653.829293	-72.608412
653.971920	-72.956961
654.114609	-73.320429
654.257361	-73.695928
654.400175	-74.079410
654.543052	-74.466476
654.685991	-74.852654
654.828992	-75.232410
654.972056	-75.598370
655.115183	-75.942439
655.258372	-76.255723
655.401623	-76.529197
655.544937	-76.754902
655.688314	-76.926477
655.831754	-77.039079
655.975256	-77.089789
656.118822	-77.077911
656.262450	-77.007224
656.406141	-76.884330
656.549894	-76.716303
656.693711	-76.510473
656.837591	-76.274846
656.981534	-76.017517
657.125540	-75.745481
657.269610	-75.465846
657.413742	-75.184805
657.557938	-74.907151
657.702196	-74.636295
657.846519	-74.375398
657.990904	-74.128033
658.135353	-73.897118
658.279866	-73.684224
658.424441	-73.489923
658.569081	-73.315131
658.713784	-73.161050
658.858550	-73.028410
659.003381	-72.917410
659.148274	-72.827946
659.293232	-72.759702
659.438253	-72.712638
659.583339	-72.686694
659.728488	-72.681574
659.873701	-72.696296
660.018978	-72.729981
660.164318	-72.781363
660.309723	-72.850026
660.455192	-72.935500
660.600725	-73.036249
660.746323	-73.150688
660.891984	-73.278074
661.037710	-73.417977
661.183500	-73.569108
661.329354	-73.729347
661.475272	-73.895871
661.621255	-74.066864
661.767303	-74.240594
661.913415	-74.414268
662.059591	-74.583783
662.205833	-74.744000
662.352138	-74.889760
662.498509	-75.015769
662.644944	-75.115369
662.791443	-75.181413
662.938008	-75.207170
663.084638	-75.186524
663.231332	-75.115707
663.378091	-74.992830
663.524915	-74.817492
663.671804	-74.591252
663.818759	-74.318331
663.965778	-74.005884
664.112863	-73.661841
664.260012	-73.293106
664.407227	-72.905901
664.554507	-72.506575
664.701853	-72.101733
664.849264	-71.696933
664.996740	-71.295629
665.144282	-70.900126
665.291889	-70.513216
665.439561	-70.137264
665.587300	-69.773899
665.735103	-69.423760
665.882973	-69.086960
666.030908	-68.764033
666.178909	-68.455276
666.326976	-68.160657
666.475109	-67.879963
666.623307	-67.612854
666.771571	-67.359032
666.919902	-67.117748
667.068298	-66.888479
667.216761	-66.670635
667.365289	-66.463767
667.513884	-66.266838
667.662545	-66.078863
667.811272	-65.899220
667.960065	-65.727295
668.108925	-65.562484
668.257851	-65.404431
668.406843	-65.252797
668.555902	-65.107403
668.705027	-64.967940
668.854219	-64.834397
669.003478	-64.706928
669.152803	-64.585832
669.302195	-64.471277
669.451653	-64.363645
669.601179	-64.263691
669.750771	-64.172070
669.900430	-64.089416
670.050156	-64.016126
670.199949	-63.952580
670.349808	-63.899266
670.499735	-63.856653
670.649729	-63.825153
670.799790	-63.805120
670.949918	-63.796616
671.100114	-63.799760
671.250377	-63.814747
671.400707	-63.841323
671.551104	-63.879298
671.701569	-63.928547
671.852101	-63.988809
672.002700	-64.060117
672.153368	-64.142323
672.304102	-64.235118
672.454905	-64.338231
672.605775	-64.451566
672.756713	-64.575311
672.907718	-64.709375
673.058791	-64.853733
673.209933	-65.008178
673.361142	-65.172591
673.512419	-65.347265
673.663764	-65.532380
673.815177	-65.727583
673.966658	-65.932725
674.118207	-66.147935
674.269825	-66.372771
674.421510	-66.606280
674.573264	-66.848077
674.725086	-67.097944
674.876977	-67.355562
675.028936	-67.619600
675.180963	-67.888857
675.333059	-68.162349
675.485224	-68.439344
675.637457	-68.718251
675.789758	-68.997139
675.942129	-69.274215
676.094568	-69.547333
676.247075	-69.814184
676.399652	-70.072279
676.552298	-70.318171
676.705012	-70.547577
676.857795	-70.756576
677.010648	-70.941232
677.163569	-71.097472
677.316560	-71.221057
677.469619	-71.307917
677.622748	-71.355037
677.775946	-71.360665
677.929214	-71.324486
678.082551	-71.247916
678.235957	-71.133373
678.389432	-70.983620
678.542977	-70.802553
678.696592	-70.595396
678.850276	-70.367320
679.004030	-70.122733
679.157853	-69.865883
679.311746	-69.600820
679.465709	-69.331392
679.619742	-69.060544
679.773844	-68.790773
679.928017	-68.524457
680.082259	-68.263533
680.236571	-68.009634
680.390954	-67.763987
680.545406	-67.527387
680.699929	-67.300959
680.854522	-67.085241
681.009185	-66.880748
681.163918	-66.687763
681.318722	-66.506371
681.473596	-66.336644
681.628540	-66.178465
681.783555	-66.031622
681.938641	-65.895654
682.093797	-65.770375
682.249023	-65.655210
682.404321	-65.549702
682.559689	-65.453343
682.715128	-65.365795
682.870637	-65.286774
683.026218	-65.215789
683.181869	-65.152086
683.337591	-65.095508
683.493385	-65.045924
683.649249	-65.003144
683.805185	-64.966855
683.961191	-64.936802
684.117269	-64.912991
684.273418	-64.895479
684.429639	-64.883793
684.585930	-64.877531
684.742294	-64.876879
684.898728	-64.881595
685.055234	-64.891423
685.211812	-64.906311
685.368461	-64.925856
685.525182	-64.949531
685.681975	-64.977056
685.838839	-65.008067
685.995775	-65.042532
686.152783	-65.080007
686.309863	-65.120117
686.467014	-65.162634
686.624238	-65.207151
686.781534	-65.253906
686.938902	-65.302663
687.096342	-65.352818
687.253854	-65.403940
687.411438	-65.455686
687.569095	-65.507979
687.726824	-65.560292
687.884626	-65.612088
688.042499	-65.662656
688.200446	-65.711269
688.358465	-65.757298
688.516556	-65.799707
688.674720	-65.837582
688.832957	-65.870503
688.991266	-65.897534
689.149649	-65.917633
689.308104	-65.930334
689.466632	-65.934762
689.625233	-65.930657
689.783906	-65.917580
689.942653	-65.895224
690.101473	-65.863762
690.260367	-65.823432
690.419333	-65.774566
690.578372	-65.717369
690.737485	-65.653046
690.896672	-65.582186
691.055931	-65.505394
691.215264	-65.423179
691.374671	-65.336376
691.534151	-65.246466
691.693704	-65.154282
691.853332	-65.060477
692.013033	-64.965251
692.172807	-64.869228
692.332656	-64.773041
692.492578	-64.677339
692.652575	-64.582552
692.812645	-64.488731
692.972789	-64.396102
693.133007	-64.304721
693.293300	-64.215173
693.453666	-64.127955
693.614107	-64.043196
693.774622	-63.960803
693.935211	-63.880915
694.095875	-63.804003
694.256613	-63.730520
694.417426	-63.660427
694.578313	-63.593603
694.739274	-63.529804
694.900311	-63.469184
695.061421	-63.411684
695.222607	-63.357393
695.383868	-63.306163
695.545203	-63.257650
695.706613	-63.211565
695.868098	-63.168003
696.029658	-63.126824
696.191293	-63.087824
696.353003	-63.051073
696.514789	-63.016456
696.676649	-62.984048
696.838585	-62.953637
697.000596	-62.925332
697.162682	-62.899021
697.324844	-62.874778
697.487081	-62.852528
697.649394	-62.831843
697.811782	-62.812850
697.974246	-62.795117
698.136786	-62.778651
698.299401	-62.763005
698.462092	-62.747731
698.624859	-62.732487
698.787702	-62.717175
698.950621	-62.701513
699.113616	-62.685156
699.276686	-62.667871
699.439833	-62.649641
699.603056	-62.630493
699.766355	-62.610117
699.929731	-62.588695
700.093183	-62.566655
700.256711	-62.544157
700.420315	-62.521145
700.583996	-62.497719
700.747754	-62.473897
700.911588	-62.450054
701.075499	-62.426069
701.239486	-62.401953
701.403550	-62.377538
701.567691	-62.352645
701.731909	-62.327122
701.896203	-62.300887
702.060575	-62.273689
702.225024	-62.245520
702.389549	-62.215922
702.554152	-62.184979
702.718832	-62.152766
702.883589	-62.119263
703.048424	-62.084814
703.213335	-62.049282
703.378324	-62.012844
703.543391	-61.975654
703.708535	-61.938342
703.873757	-61.900945
704.039056	-61.863666
704.204433	-61.826641
704.369887	-61.790277
704.535420	-61.754626
704.701030	-61.719791
704.866718	-61.685746
705.032484	-61.652721
705.198328	-61.620669
705.364250	-61.589793
705.530250	-61.560079
705.696328	-61.531572
705.862485	-61.504352
706.028720	-61.478573
706.195033	-61.454332
706.361424	-61.431561
706.527894	-61.410459
706.694442	-61.391060
706.861069	-61.373614
707.027775	-61.358023
707.194559	-61.344294
707.361422	-61.332534
707.528363	-61.322876
707.695384	-61.315417
707.862483	-61.309837
708.029661	-61.306336
708.196918	-61.304934
708.364254	-61.305869
708.531670	-61.309263
708.699164	-61.315165
708.866738	-61.323725
709.034391	-61.334865
709.202123	-61.348447
709.369935	-61.364541
709.537826	-61.383191
709.705796	-61.404161
709.873847	-61.427169
710.041976	-61.451854
710.210186	-61.478154
710.378475	-61.505611
710.546844	-61.534241
710.715292	-61.563625
710.883821	-61.593389
711.052429	-61.623374
711.221118	-61.653433
711.389887	-61.683583
711.558735	-61.713590
711.727664	-61.743166
711.896673	-61.772166
712.065763	-61.800218
712.234932	-61.827038
712.404183	-61.852448
712.573513	-61.875876
712.742924	-61.896944
712.912416	-61.914846
713.081988	-61.929233
713.251641	-61.939534
713.421375	-61.945276
713.591190	-61.945744
713.761085	-61.940581
713.931061	-61.929590
714.101119	-61.912501
714.271257	-61.888985
714.441476	-61.858896
714.611777	-61.822343
714.782159	-61.779711
714.952622	-61.731100
715.123166	-61.676571
715.293792	-61.616331
715.464499	-61.550657
715.635288	-61.479924
715.806158	-61.404284
715.977110	-61.324141
716.148143	-61.239763
716.319259	-61.151277
716.490456	-61.058950
716.661735	-60.963226
716.833096	-60.864775
717.004538	-60.763975
717.176063	-60.661332
717.347670	-60.557293
717.519359	-60.452448
717.691130	-60.347442
717.862984	-60.242778
718.034920	-60.139171
718.206938	-60.036827
718.379039	-59.935865
718.551222	-59.836836
718.723488	-59.739995
718.895836	-59.645666
719.068267	-59.553993
719.240781	-59.465240
719.413377	-59.379411
719.586057	-59.296698
719.758819	-59.217343
719.931664	-59.141589
720.104593	-59.069536
720.277604	-59.001253
720.450699	-58.937013
720.623876	-58.876842
720.797137	-58.820869
720.970482	-58.769009
721.143910	-58.721480
721.317421	-58.678429
721.491016	-58.640033
721.664694	-58.606356
721.838456	-58.577548
722.012302	-58.553809
722.186231	-58.535575
722.360244	-58.522886
722.534342	-58.515662
722.708523	-58.513900
722.882788	-58.517481
723.057137	-58.526484
723.231570	-58.540692
723.406088	-58.559954
723.580689	-58.584048
723.755375	-58.613129
723.930146	-58.647158
724.105000	-58.686460
724.279940	-58.731381
724.454963	-58.781860
724.630072	-58.838137
724.805265	-58.900318
724.980543	-58.968662
725.155905	-59.043164
725.331353	-59.123650
725.506885	-59.209742
725.682503	-59.301428
725.858205	-59.398227
726.033993	-59.499868
726.209865	-59.605903
726.385823	-59.716281
726.561866	-59.831105
726.737995	-59.950509
726.914209	-60.074638
727.090508	-60.203805
727.266893	-60.338332
727.443364	-60.478551
727.619920	-60.624684
727.796562	-60.776447
727.973290	-60.933496
728.150103	-61.095390
728.327003	-61.261283
728.503988	-61.430423
728.681060	-61.601981
728.858218	-61.774953
729.035461	-61.949124
729.212791	-62.123888
729.390208	-62.299120
729.567710	-62.474746
