# 2022-03-21_22.04.22
# shape = sech2
# FWHM_ps = 0.1
# carrier_nm = 1542
# frep_MHz = 12126
# pow_mW = 8000
# GDD = 0.0
# propa_len = 0.10488888888888889
# untap_len = 0.01
# taper_len = 0.04488888888888889
# waist_len = 0.02
# uptap_len = 0.02
# untap_scale = 1.0
# waist_scale = 0.4
# workingDir = NL_20110305_12 (Spirou)
# axis = slow
# window_ps = 10.0
# steps = 200
# points = 21700
# 
# wavelength [nm]	 power spectral density [dB]
600.043425	-148.052193
600.163550	-146.480868
600.283723	-145.285244
600.403943	-144.362287
600.524212	-143.648937
600.644529	-143.103458
600.764895	-142.697304
600.885308	-142.410766
601.005770	-142.230391
601.126280	-142.147410
601.246839	-142.156933
601.367446	-142.257827
601.488101	-142.453092
601.608804	-142.750465
601.729557	-143.162988
601.850357	-143.709418
601.971206	-144.414570
602.092104	-145.309766
602.213050	-146.433510
602.334045	-147.831553
602.455089	-149.551418
602.576181	-151.609228
602.697322	-153.843547
602.818511	-155.511806
602.939749	-155.434810
603.061036	-153.901199
603.182372	-152.089427
603.303757	-150.496017
603.425191	-149.179554
603.546673	-148.087142
603.668204	-147.152106
603.789785	-146.316568
603.911414	-145.536849
604.033092	-144.785283
604.154820	-144.050570
604.276596	-143.336292
604.398422	-142.657399
604.520297	-142.035452
604.642220	-141.493855
604.764193	-141.054086
604.886216	-140.733382
605.008287	-140.544017
605.130408	-140.494128
605.252578	-140.589844
605.374798	-140.838316
605.497066	-141.251106
605.619385	-141.847914
605.741752	-142.661416
605.864169	-143.745408
605.986636	-145.190926
606.109152	-147.163137
606.231718	-150.004900
606.354333	-154.643883
606.476998	-166.246125
606.599712	-160.860711
606.722476	-152.783112
606.845290	-148.742034
606.968154	-146.081350
607.091067	-144.132376
607.214030	-142.617135
607.337043	-141.391718
607.460106	-140.373727
607.583219	-139.515195
607.706381	-138.789782
607.829594	-138.185076
607.952856	-137.697238
608.076169	-137.327265
608.199531	-137.078679
608.322944	-136.956411
608.446407	-136.966587
608.569920	-137.116874
608.693483	-137.416965
608.817096	-137.878725
608.940759	-138.515404
609.064473	-139.339145
609.188237	-140.355445
609.312051	-141.552049
609.435916	-142.879042
609.559831	-144.222649
609.683796	-145.401897
609.807812	-146.249895
609.931878	-146.759779
610.055995	-147.109164
610.180162	-147.520519
610.304380	-148.139300
610.428648	-148.983092
610.552967	-149.882643
610.677337	-150.424290
610.801757	-150.176316
610.926228	-149.196178
611.050750	-147.920451
611.175323	-146.671218
611.299946	-145.559507
611.424620	-144.590905
611.549345	-143.746401
611.674121	-143.018750
611.798948	-142.421239
611.923826	-141.982019
612.048755	-141.734338
612.173734	-141.708958
612.298765	-141.930141
612.423847	-142.413440
612.548980	-143.162432
612.674165	-144.160998
612.799400	-145.357374
612.924687	-146.639968
613.050025	-147.823987
613.175414	-148.700618
613.300854	-149.161251
613.426346	-149.254812
613.551889	-149.083795
613.677484	-148.694578
613.803130	-148.085002
613.928827	-147.276035
614.054576	-146.347592
614.180377	-145.409330
614.306229	-144.556558
614.432132	-143.852303
614.558087	-143.332556
614.684094	-143.018796
614.810153	-142.929240
614.936263	-143.087286
615.062425	-143.528737
615.188639	-144.310487
615.314904	-145.524396
615.441222	-147.321687
615.567591	-149.942600
615.694012	-153.517433
615.820486	-155.490170
615.947011	-152.155269
616.073588	-148.411825
616.200217	-145.628492
616.326898	-143.565146
616.453632	-142.001293
616.580417	-140.806536
616.707255	-139.910043
616.834144	-139.280321
616.961086	-138.913788
617.088081	-138.828273
617.215127	-139.060368
617.342226	-139.667013
617.469378	-140.731375
617.596581	-142.366542
617.723837	-144.659484
617.851146	-147.171424
617.978507	-147.543313
618.105920	-145.046021
618.233386	-142.341649
618.360905	-140.300988
618.488476	-138.905449
618.616100	-138.049599
618.743777	-137.654772
618.871506	-137.670979
618.999288	-138.069074
619.127123	-138.835729
619.255011	-139.972555
619.382951	-141.500841
619.510945	-143.476493
619.638991	-146.026971
619.767090	-149.438616
619.895243	-154.291640
620.023448	-159.095878
620.151706	-155.129956
620.280017	-150.837254
620.408382	-148.113394
620.536799	-146.389758
620.665270	-145.370407
620.793794	-144.903710
620.922371	-144.878937
621.051002	-145.147292
621.179686	-145.437939
621.308423	-145.355176
621.437213	-144.645837
621.566057	-143.472945
621.694954	-142.191585
621.823905	-141.041572
621.952909	-140.113554
622.081967	-139.414589
622.211079	-138.913855
622.340244	-138.563331
622.469462	-138.308503
622.598735	-138.098736
622.728061	-137.899329
622.857441	-137.700604
622.986874	-137.518320
623.116361	-137.385619
623.245903	-137.342758
623.375498	-137.430351
623.505147	-137.687400
623.634850	-138.152254
623.764606	-138.864269
623.894417	-139.864240
624.024282	-141.190599
624.154201	-142.862276
624.284174	-144.820731
624.414202	-146.779522
624.544283	-148.087587
624.674419	-148.264150
624.804609	-147.740260
624.934853	-147.163794
625.065151	-146.770999
625.195504	-146.467442
625.325911	-146.001428
625.456373	-145.180086
625.586889	-144.058684
625.717460	-142.867786
625.848085	-141.817076
625.978764	-141.022414
626.109498	-140.528172
626.240287	-140.339411
626.371131	-140.438339
626.502029	-140.785907
626.632982	-141.312554
626.763989	-141.905267
626.895052	-142.410738
627.026169	-142.683724
627.157341	-142.667110
627.288568	-142.416771
627.419850	-142.036249
627.551187	-141.604245
627.682579	-141.155384
627.814026	-140.698553
627.945528	-140.241365
628.077085	-139.803794
628.208697	-139.417937
628.340364	-139.119461
628.472087	-138.938035
628.603865	-138.890667
628.735698	-138.978270
628.867586	-139.184407
628.999530	-139.475593
629.131529	-139.803835
629.263584	-140.113618
629.395694	-140.355364
629.527859	-140.502447
629.660080	-140.561366
629.792357	-140.565680
629.924689	-140.557540
630.057077	-140.570281
630.189520	-140.621104
630.322019	-140.713041
630.454574	-140.840277
630.587184	-140.990570
630.719851	-141.140727
630.852573	-141.244960
630.985351	-141.223565
631.118185	-140.971989
631.251075	-140.410563
631.384021	-139.548803
631.517023	-138.492214
631.650081	-137.382316
631.783195	-136.339508
631.916365	-135.446153
632.049592	-134.754641
632.182874	-134.300309
632.316213	-134.111799
632.449608	-134.218900
632.583059	-134.659954
632.716567	-135.491195
632.850131	-136.800932
632.983751	-138.730867
633.117428	-141.481203
633.251161	-144.955568
633.384951	-146.293257
633.518797	-143.323697
633.652700	-140.193339
633.786660	-137.942317
633.920676	-136.406071
634.054749	-135.408664
634.188879	-134.839181
634.323065	-134.632528
634.457308	-134.755300
634.591608	-135.199926
634.725965	-135.985002
634.860379	-137.162740
634.994850	-138.840583
635.129377	-141.240033
635.263962	-144.875148
635.398604	-151.103958
635.533303	-153.970736
635.668058	-146.450211
635.802872	-142.022650
635.937742	-139.189200
636.072669	-137.247386
636.207654	-135.922692
636.342696	-135.097384
636.477796	-134.726372
636.612953	-134.808654
636.748167	-135.380383
636.883439	-136.520809
637.018768	-138.369949
637.154155	-141.136956
637.289599	-144.770911
637.425101	-146.411941
637.560660	-143.643004
637.696277	-140.792861
637.831952	-138.933016
637.967685	-137.873896
638.103475	-137.412032
638.239324	-137.392874
638.375230	-137.676572
638.511194	-138.113063
638.647215	-138.542309
638.783295	-138.826142
638.919433	-138.886536
639.055629	-138.705449
639.191883	-138.291466
639.328195	-137.664887
639.464565	-136.873602
639.600994	-136.001944
639.737481	-135.151438
639.874025	-134.413484
640.010629	-133.855881
640.147290	-133.523960
640.284010	-133.447754
640.420789	-133.649149
640.557625	-134.146955
640.694521	-134.959645
640.831474	-136.105930
640.968487	-137.603203
641.105558	-139.463896
641.242687	-141.690955
641.379876	-144.281765
641.517123	-147.278024
641.654429	-150.960124
641.791793	-156.343206
641.929216	-160.442231
642.066699	-152.757837
642.204240	-147.337630
642.341840	-143.646032
642.479499	-140.955975
642.617217	-138.973353
642.754994	-137.562250
642.892830	-136.656682
643.030726	-136.230176
643.168680	-136.285840
643.306694	-136.855803
643.444767	-138.008211
643.582899	-139.866949
643.721091	-142.662481
643.859342	-146.876841
643.997652	-153.691589
644.136022	-160.645829
644.274451	-155.670455
644.412940	-154.218151
644.551488	-156.232676
644.690096	-162.523319
644.828763	-159.656112
644.967490	-153.622925
645.106277	-151.104725
645.245124	-150.859649
645.384030	-152.310954
645.522997	-151.824661
645.662023	-146.902856
645.801109	-142.448958
645.940255	-139.244308
646.079460	-136.999141
646.218726	-135.487761
646.358052	-134.566766
646.497438	-134.136776
646.636884	-134.114630
646.776391	-134.410268
646.915957	-134.904117
647.055584	-135.433356
647.195271	-135.816009
647.335019	-135.934616
647.474826	-135.817465
647.614695	-135.617487
647.754623	-135.523501
647.894612	-135.707954
648.034662	-136.331894
648.174772	-137.579926
648.314943	-139.706128
648.455174	-142.956753
648.595466	-145.730900
648.735819	-143.201410
648.876233	-139.545646
649.016707	-137.043653
649.157242	-135.532924
649.297838	-134.788267
649.438495	-134.673113
649.579213	-135.100114
649.719992	-135.992448
649.860832	-137.237130
650.001733	-138.609071
650.142695	-139.695186
650.283718	-140.035188
650.424803	-139.567354
650.565949	-138.674008
650.707156	-137.751403
650.848424	-137.031821
650.989754	-136.636282
651.131145	-136.634273
651.272597	-137.072642
651.414111	-137.989183
651.555687	-139.423101
651.697324	-141.434755
651.839022	-144.164407
651.980782	-148.023793
652.122604	-154.312010
652.264488	-157.792839
652.406433	-149.865451
652.548441	-145.128321
652.690510	-142.030195
652.832640	-139.800535
652.974833	-138.054341
653.117088	-136.524034
653.259405	-135.037530
653.401784	-133.556639
653.544224	-132.158109
653.686727	-130.954922
653.829293	-130.036664
653.971920	-129.456720
654.114609	-129.242855
654.257361	-129.410299
654.400175	-129.971164
654.543052	-130.941093
654.685991	-132.344685
654.828992	-134.214556
654.972056	-136.543616
655.115183	-138.999499
655.258372	-140.199331
655.401623	-139.017752
655.544937	-136.936429
655.688314	-135.132060
655.831754	-133.822972
655.975256	-132.964038
656.118822	-132.464169
656.262450	-132.223738
656.406141	-132.146419
656.549894	-132.157844
656.693711	-132.225292
656.837591	-132.358345
656.981534	-132.582651
657.125540	-132.900670
657.269610	-133.257956
657.413742	-133.533064
657.557938	-133.578757
657.702196	-133.316260
657.846519	-132.797086
657.990904	-132.158928
658.135353	-131.544042
658.279866	-131.062660
658.424441	-130.796047
658.569081	-130.808596
658.713784	-131.156392
658.858550	-131.891595
659.003381	-133.062746
659.148274	-134.704156
659.293232	-136.784140
659.438253	-139.020263
659.583339	-140.552356
659.728488	-140.510404
659.873701	-139.409009
660.018978	-138.107063
660.164318	-136.879672
660.309723	-135.713563
660.455192	-134.562026
660.600725	-133.423324
660.746323	-132.342315
660.891984	-131.387843
661.037710	-130.632091
661.183500	-130.140300
661.329354	-129.969136
661.475272	-130.170103
661.621255	-130.796567
661.767303	-131.915981
661.913415	-133.633329
662.059591	-136.137680
662.205833	-139.749282
662.352138	-143.986643
662.498509	-142.652297
662.644944	-138.136201
662.791443	-134.683080
662.938008	-132.145559
663.084638	-130.241787
663.231332	-128.826801
663.378091	-127.827849
663.524915	-127.205280
663.671804	-126.933476
663.818759	-126.990626
663.965778	-127.351656
664.112863	-127.980646
664.260012	-128.818867
664.407227	-129.765749
664.554507	-130.659927
664.701853	-131.294401
664.849264	-131.509484
664.996740	-131.305771
665.144282	-130.826668
665.291889	-130.233608
665.439561	-129.627212
665.587300	-129.048849
665.735103	-128.516090
665.882973	-128.056720
666.030908	-127.724752
666.178909	-127.597164
666.326976	-127.762879
666.475109	-128.316205
666.623307	-129.357566
666.771571	-130.989803
666.919902	-133.243504
667.068298	-135.604585
667.216761	-136.087635
667.365289	-134.149137
667.513884	-131.882164
667.662545	-130.106410
667.811272	-128.828336
667.960065	-127.921177
668.108925	-127.251353
668.257851	-126.692148
668.406843	-126.137005
668.555902	-125.527062
668.705027	-124.870096
668.854219	-124.226168
669.003478	-123.670996
669.152803	-123.267181
669.302195	-123.054986
669.451653	-123.055283
669.601179	-123.274770
669.750771	-123.707913
669.900430	-124.333305
670.050156	-125.103432
670.199949	-125.929674
670.349808	-126.675877
670.499735	-127.192563
670.649729	-127.404947
670.799790	-127.376784
670.949918	-127.263677
671.100114	-127.214548
671.250377	-127.311695
671.400707	-127.544646
671.551104	-127.782674
671.701569	-127.771783
671.852101	-127.270641
672.002700	-126.291076
672.153368	-125.093993
672.304102	-123.952011
672.454905	-123.026400
672.605775	-122.383014
672.756713	-122.032568
672.907718	-121.955698
673.058791	-122.115170
673.209933	-122.463413
673.361142	-122.952475
673.512419	-123.550447
673.663764	-124.261667
673.815177	-125.142689
673.966658	-126.311967
674.118207	-127.969272
674.269825	-130.471158
674.421510	-134.602088
674.573264	-141.607660
674.725086	-137.596295
674.876977	-131.426531
675.028936	-127.733306
675.180963	-125.305111
675.333059	-123.671842
675.485224	-122.625418
675.637457	-122.056252
675.789758	-121.893947
675.942129	-122.077814
676.094568	-122.534045
676.247075	-123.153229
676.399652	-123.776768
676.552298	-124.219855
676.705012	-124.349933
676.857795	-124.163446
677.010648	-123.770954
677.163569	-123.317930
677.316560	-122.930008
677.469619	-122.700496
677.622748	-122.694511
677.775946	-122.952570
677.929214	-123.485598
678.082551	-124.250273
678.235957	-125.089437
678.389432	-125.665483
678.542977	-125.580783
678.696592	-124.780906
678.850276	-123.616586
679.004030	-122.442448
679.157853	-121.432201
679.311746	-120.631738
679.465709	-120.029009
679.619742	-119.591765
679.773844	-119.286912
679.928017	-119.093014
680.082259	-119.008913
680.236571	-119.057139
680.390954	-119.281614
680.545406	-119.742684
680.699929	-120.514559
680.854522	-121.690231
681.009185	-123.400864
681.163918	-125.869143
681.318722	-129.575801
681.473596	-136.035108
681.628540	-152.045009
681.783555	-136.524299
681.938641	-131.612074
682.093797	-129.117906
682.249023	-127.620737
682.404321	-126.577665
682.559689	-125.697601
682.715128	-124.836320
682.870637	-123.962068
683.026218	-123.105886
683.181869	-122.311419
683.337591	-121.610716
683.493385	-121.022197
683.649249	-120.554844
683.805185	-120.211690
683.961191	-119.993800
684.117269	-119.904818
684.273418	-119.952878
684.429639	-120.148190
684.585930	-120.498750
684.742294	-121.007030
684.898728	-121.666592
685.055234	-122.453013
685.211812	-123.301761
685.368461	-124.072646
685.525182	-124.535813
685.681975	-124.469419
685.838839	-123.855562
685.995775	-122.908164
686.152783	-121.884036
686.309863	-120.951050
686.467014	-120.184300
686.624238	-119.602844
686.781534	-119.200041
686.938902	-118.960170
687.096342	-118.864397
687.253854	-118.891802
687.411438	-119.020441
687.569095	-119.229244
687.726824	-119.498769
687.884626	-119.811078
688.042499	-120.152066
688.200446	-120.517409
688.358465	-120.917600
688.516556	-121.376687
688.674720	-121.924836
688.832957	-122.588332
688.991266	-123.375905
689.149649	-124.250121
689.308104	-125.070237
689.466632	-125.544100
689.625233	-125.361764
689.783906	-124.526213
689.942653	-123.358500
690.101473	-122.166770
690.260367	-121.106297
690.419333	-120.225694
690.578372	-119.524124
690.737485	-118.979500
690.896672	-118.561076
691.055931	-118.238357
691.215264	-117.989183
691.374671	-117.804957
691.534151	-117.691552
691.693704	-117.667204
691.853332	-117.759734
692.013033	-118.004197
692.172807	-118.440877
692.332656	-119.113865
692.492578	-120.071466
692.652575	-121.370015
692.812645	-123.081054
692.972789	-125.291699
693.133007	-128.021557
693.293300	-130.625417
693.453666	-130.722626
693.614107	-128.197906
693.774622	-125.428864
693.935211	-123.093387
694.095875	-121.174406
694.256613	-119.593094
694.417426	-118.295092
694.578313	-117.246785
694.739274	-116.425346
694.900311	-115.812794
695.061421	-115.393336
695.222607	-115.152367
695.383868	-115.076378
695.545203	-115.154089
695.706613	-115.379351
695.868098	-115.755419
696.029658	-116.298847
696.191293	-117.041474
696.353003	-118.030513
696.514789	-119.326929
696.676649	-120.995354
696.838585	-123.049724
697.000596	-125.221292
697.162682	-126.456866
697.324844	-125.729138
697.487081	-123.962296
697.649394	-122.241171
697.811782	-120.852750
697.974246	-119.777830
698.136786	-118.935382
698.299401	-118.241643
698.462092	-117.626724
698.624859	-117.043678
698.787702	-116.472342
698.950621	-115.916965
699.113616	-115.400298
699.276686	-114.957307
699.439833	-114.629458
699.603056	-114.459707
699.766355	-114.489348
699.929731	-114.757979
700.093183	-115.306070
700.256711	-116.177367
700.420315	-117.415933
700.583996	-119.043442
700.747754	-120.964161
700.911588	-122.677256
701.075499	-123.110396
701.239486	-121.960028
701.403550	-120.211502
701.567691	-118.533410
701.731909	-117.070021
701.896203	-115.800174
702.060575	-114.691303
702.225024	-113.735353
702.389549	-112.945313
702.554152	-112.342623
702.718832	-111.947963
702.883589	-111.777968
703.048424	-111.845127
703.213335	-112.157456
703.378324	-112.716733
703.543391	-113.516176
703.708535	-114.538859
703.873757	-115.757276
704.039056	-117.133190
704.204433	-118.613118
704.369887	-120.100188
704.535420	-121.361662
704.701030	-121.918349
704.866718	-121.332759
705.032484	-119.844225
705.198328	-118.081161
705.364250	-116.448399
705.530250	-115.095150
705.696328	-114.053015
705.862485	-113.313508
706.028720	-112.857911
706.195033	-112.666914
706.361424	-112.723018
706.527894	-113.011389
706.694442	-113.520934
706.861069	-114.244960
707.027775	-115.180525
707.194559	-116.326371
707.361422	-117.678092
707.528363	-119.212106
707.695384	-120.832826
707.862483	-122.241252
708.029661	-122.829622
708.196918	-122.155047
708.364254	-120.603179
708.531670	-118.830927
708.699164	-117.192761
708.866738	-115.806414
709.034391	-114.694495
709.202123	-113.848807
709.369935	-113.253295
709.537826	-112.891087
709.705796	-112.745774
709.873847	-112.801386
710.041976	-113.042423
710.210186	-113.453792
710.378475	-114.021006
710.546844	-114.731915
710.715292	-115.580942
710.883821	-116.576050
711.052429	-117.748896
711.221118	-119.170024
711.389887	-120.973792
711.558735	-123.405330
711.727664	-126.893779
711.896673	-131.440218
712.065763	-130.705211
712.234932	-125.917775
712.404183	-122.428785
712.573513	-120.037024
712.742924	-118.368116
712.912416	-117.202183
713.081988	-116.393208
713.251641	-115.826514
713.421375	-115.405270
713.591190	-115.054007
713.761085	-114.729552
713.931061	-114.428206
714.101119	-114.181070
714.271257	-114.039379
714.441476	-114.058516
714.611777	-114.286001
714.782159	-114.751378
714.952622	-115.451999
715.123166	-116.328589
715.293792	-117.231924
715.464499	-117.918075
715.635288	-118.160629
715.806158	-117.945244
715.977110	-117.475420
716.148143	-116.981213
716.319259	-116.606587
716.490456	-116.419531
716.661735	-116.449519
716.833096	-116.704940
717.004538	-117.161239
717.176063	-117.717748
717.347670	-118.141786
717.519359	-118.111020
717.691130	-117.478069
717.862984	-116.444773
718.034920	-115.330499
718.206938	-114.340019
718.379039	-113.551847
718.551222	-112.976609
718.723488	-112.598562
718.895836	-112.397541
719.068267	-112.360452
719.240781	-112.484511
719.413377	-112.772542
719.586057	-113.224691
719.758819	-113.832563
719.931664	-114.577206
720.104593	-115.425678
720.277604	-116.319539
720.450699	-117.160453
720.623876	-117.823613
720.797137	-118.228380
720.970482	-118.409126
721.143910	-118.480684
721.317421	-118.528259
721.491016	-118.528565
721.664694	-118.340747
721.838456	-117.793133
722.012302	-116.847862
722.186231	-115.655098
722.360244	-114.420561
722.534342	-113.285618
722.708523	-112.315265
722.882788	-111.531828
