# 2022-03-21_13.45.33
# shape = sech2
# FWHM_ps = 0.1
# carrier_nm = 1542
# frep_MHz = 12126
# pow_mW = 8000
# GDD = 0.0
# propa_len = 0.09000000000000001
# untap_len = 0.01
# taper_len = 0.03
# waist_len = 0.02
# uptap_len = 0.02
# untap_scale = 1.0
# waist_scale = 0.30000000000000004
# workingDir = NL_20110305_12 (Spirou)
# axis = slow
# window_ps = 10.0
# steps = 200
# points = 13000
# 
# wavelength [nm]	 power spectral density [dB]
1000.248639	-21.116565
1000.582480	-21.026114
1000.916545	-20.938313
1001.250832	-20.850385
1001.585343	-20.762399
1001.920077	-20.674408
1002.255035	-20.586482
1002.590218	-20.498709
1002.925624	-20.411187
1003.261255	-20.324018
1003.597111	-20.237292
1003.933192	-20.151069
1004.269497	-20.065387
1004.606029	-19.980280
1004.942785	-19.895781
1005.279768	-19.811905
1005.616977	-19.728653
1005.954412	-19.646033
1006.292074	-19.564067
1006.629962	-19.482790
1006.968077	-19.402218
1007.306420	-19.322333
1007.644990	-19.243089
1007.983787	-19.164430
1008.322813	-19.086326
1008.662067	-19.008777
1009.001549	-18.931794
1009.341259	-18.855362
1009.681199	-18.779445
1010.021367	-18.704015
1010.361765	-18.629063
1010.702392	-18.554602
1011.043250	-18.480661
1011.384337	-18.407261
1011.725654	-18.334424
1012.067202	-18.262172
1012.408980	-18.190537
1012.750989	-18.119558
1013.093230	-18.049273
1013.435702	-17.979721
1013.778405	-17.910940
1014.121341	-17.842974
1014.464508	-17.775857
1014.807908	-17.709602
1015.151540	-17.644207
1015.495405	-17.579669
1015.839503	-17.515975
1016.183835	-17.453094
1016.528400	-17.390990
1016.873198	-17.329628
1017.218231	-17.268977
1017.563498	-17.209005
1017.908999	-17.149679
1018.254735	-17.090968
1018.600707	-17.032844
1018.946913	-16.975271
1019.293354	-16.918211
1019.640032	-16.861634
1019.986945	-16.805520
1020.334094	-16.749869
1020.681480	-16.694697
1021.029102	-16.640016
1021.376961	-16.585831
1021.725058	-16.532140
1022.073391	-16.478940
1022.421962	-16.426227
1022.770772	-16.374019
1023.119819	-16.322348
1023.469104	-16.271239
1023.818628	-16.220716
1024.168391	-16.170806
1024.518393	-16.121529
1024.868634	-16.072888
1025.219115	-16.024899
1025.569836	-15.977599
1025.920796	-15.931024
1026.271997	-15.885186
1026.623438	-15.840077
1026.975121	-15.795675
1027.327044	-15.751977
1027.679208	-15.709007
1028.031614	-15.666784
1028.384262	-15.625310
1028.737152	-15.584586
1029.090284	-15.544609
1029.443659	-15.505362
1029.797276	-15.466818
1030.151137	-15.428954
1030.505240	-15.391756
1030.859587	-15.355220
1031.214178	-15.319335
1031.569013	-15.284067
1031.924093	-15.249383
1032.279417	-15.215267
1032.634985	-15.181716
1032.990799	-15.148727
1033.346858	-15.116289
1033.703162	-15.084380
1034.059712	-15.052987
1034.416509	-15.022119
1034.773551	-14.991798
1035.130841	-14.962041
1035.488377	-14.932860
1035.846160	-14.904285
1036.204190	-14.876355
1036.562468	-14.849099
1036.920994	-14.822538
1037.279768	-14.796690
1037.638790	-14.771569
1037.998061	-14.747186
1038.357581	-14.723542
1038.717350	-14.700629
1039.077368	-14.678464
1039.437636	-14.657073
1039.798154	-14.636460
1040.158922	-14.616607
1040.519940	-14.597488
1040.881209	-14.579079
1041.242729	-14.561379
1041.604501	-14.544399
1041.966524	-14.528137
1042.328798	-14.512571
1042.691325	-14.497676
1043.054103	-14.483419
1043.417135	-14.469760
1043.780419	-14.456654
1044.143956	-14.444061
1044.507746	-14.431939
1044.871791	-14.420251
1045.236088	-14.408963
1045.600641	-14.398038
1045.965447	-14.387441
1046.330508	-14.377154
1046.695824	-14.367201
1047.061395	-14.357640
1047.427222	-14.348526
1047.793304	-14.339894
1048.159642	-14.331788
1048.526237	-14.324268
1048.893088	-14.317381
1049.260196	-14.311139
1049.627561	-14.305528
1049.995183	-14.300546
1050.363063	-14.296199
1050.731201	-14.292473
1051.099597	-14.289353
1051.468251	-14.286835
1051.837164	-14.284920
1052.206336	-14.283621
1052.575767	-14.282966
1052.945458	-14.282981
1053.315409	-14.283694
1053.685619	-14.285138
1054.056090	-14.287314
1054.426821	-14.290196
1054.797814	-14.293743
1055.169067	-14.297916
1055.540582	-14.302668
1055.912359	-14.307950
1056.284398	-14.313704
1056.656698	-14.319871
1057.029262	-14.326410
1057.402088	-14.333285
1057.775177	-14.340477
1058.148530	-14.347985
1058.522146	-14.355828
1058.896027	-14.364044
1059.270171	-14.372678
1059.644580	-14.381779
1060.019254	-14.391410
1060.394193	-14.401617
1060.769397	-14.412411
1061.144867	-14.423789
1061.520602	-14.435756
1061.896604	-14.448315
1062.272872	-14.461457
1062.649407	-14.475158
1063.026210	-14.489397
1063.403279	-14.504172
1063.780616	-14.519489
1064.158221	-14.535362
1064.536094	-14.551805
1064.914235	-14.568830
1065.292645	-14.586454
1065.671325	-14.604698
1066.050273	-14.623585
1066.429491	-14.643123
1066.808979	-14.663288
1067.188738	-14.684041
1067.568766	-14.705336
1067.949066	-14.727114
1068.329636	-14.749320
1068.710478	-14.771913
1069.091592	-14.794836
1069.472977	-14.818019
1069.854635	-14.841430
1070.236565	-14.865091
1070.618768	-14.889061
1071.001243	-14.913414
1071.383993	-14.938188
1071.767016	-14.963409
1072.150313	-14.989131
1072.533884	-15.015394
1072.917730	-15.042188
1073.301850	-15.069483
1073.686246	-15.097280
1074.070917	-15.125584
1074.455864	-15.154373
1074.841087	-15.183626
1075.226586	-15.213370
1075.612362	-15.243652
1075.998415	-15.274501
1076.384745	-15.305935
1076.771353	-15.337958
1077.158238	-15.370563
1077.545401	-15.403737
1077.932843	-15.437454
1078.320564	-15.471695
1078.708564	-15.506431
1079.096842	-15.541616
1079.485401	-15.577212
1079.874240	-15.613159
1080.263358	-15.649369
1080.652757	-15.685769
1081.042438	-15.722302
1081.432399	-15.758903
1081.822641	-15.795494
1082.213166	-15.832035
1082.603972	-15.868541
1082.995061	-15.905022
1083.386433	-15.941504
1083.778087	-15.978067
1084.170025	-16.014818
1084.562246	-16.051829
1084.954751	-16.089103
1085.347541	-16.126582
1085.740615	-16.164180
1086.133973	-16.201856
1086.527617	-16.239636
1086.921546	-16.277571
1087.315761	-16.315717
1087.710262	-16.354163
1088.105050	-16.393072
1088.500124	-16.432612
1088.895485	-16.472921
1089.291134	-16.514112
1089.687070	-16.556207
1090.083294	-16.599119
1090.479806	-16.642729
1090.876607	-16.686940
1091.273696	-16.731645
1091.671075	-16.776733
1092.068744	-16.822187
1092.466702	-16.868104
1092.864950	-16.914596
1093.263489	-16.961725
1093.662319	-17.009477
1094.061440	-17.057748
1094.460852	-17.106351
1094.860555	-17.155073
1095.260551	-17.203704
1095.660840	-17.252019
1096.061421	-17.299822
1096.462295	-17.347052
1096.863462	-17.393799
1097.264923	-17.440170
1097.666678	-17.486245
1098.068727	-17.532057
1098.471071	-17.577514
1098.873710	-17.622404
1099.276644	-17.666546
1099.679874	-17.709856
1100.083400	-17.752313
1100.487222	-17.793989
1100.891340	-17.835090
1101.295756	-17.875889
1101.700468	-17.916614
1102.105478	-17.957488
1102.510787	-17.998681
1102.916393	-18.040178
1103.322298	-18.081847
1103.728502	-18.123639
1104.135005	-18.165623
1104.541807	-18.207927
1104.948909	-18.250784
1105.356312	-18.294560
1105.764015	-18.339649
1106.172019	-18.386286
1106.580324	-18.434469
1106.988931	-18.484094
1107.397840	-18.535033
1107.807051	-18.587156
1108.216564	-18.640349
1108.626380	-18.694561
1109.036500	-18.749826
1109.446923	-18.806285
1109.857649	-18.864149
1110.268680	-18.923547
1110.680016	-18.984399
1111.091657	-19.046370
1111.503602	-19.109034
1111.915854	-19.172042
1112.328411	-19.235093
1112.741275	-19.297953
1113.154445	-19.360565
1113.567922	-19.422978
1113.981706	-19.485186
1114.395798	-19.547112
1114.810198	-19.608648
1115.224906	-19.669574
1115.639923	-19.729571
1116.055249	-19.788318
1116.470884	-19.845536
1116.886829	-19.901060
1117.303084	-19.954926
1117.719650	-20.007306
1118.136526	-20.058395
1118.553713	-20.108360
1118.971212	-20.157257
1119.389022	-20.205022
1119.807145	-20.251635
1120.225580	-20.297202
1120.644328	-20.341807
1121.063389	-20.385524
1121.482763	-20.428577
1121.902452	-20.471333
1122.322454	-20.514166
1122.742771	-20.557436
1123.163404	-20.601409
1123.584351	-20.646179
1124.005614	-20.691820
1124.427193	-20.738492
1124.849089	-20.786374
1125.271301	-20.835630
1125.693830	-20.886450
1126.116677	-20.939091
1126.539842	-20.993853
1126.963324	-21.050905
1127.387126	-21.110238
1127.811246	-21.171887
1128.235685	-21.235901
1128.660444	-21.302202
1129.085522	-21.370687
1129.510922	-21.441331
1129.936641	-21.514068
1130.362682	-21.588815
1130.789044	-21.665557
1131.215728	-21.744189
1131.642734	-21.824448
1132.070063	-21.906125
1132.497714	-21.989024
1132.925689	-22.072774
1133.353987	-22.156963
1133.782610	-22.241325
1134.211556	-22.325652
1134.640827	-22.409661
1135.070424	-22.492980
1135.500345	-22.575248
1135.930593	-22.656220
1136.361166	-22.735661
1136.792067	-22.813185
1137.223294	-22.888368
1137.654848	-22.960816
1138.086730	-23.030210
1138.518940	-23.096525
1138.951479	-23.159775
1139.384346	-23.219728
1139.817543	-23.276273
1140.251069	-23.329432
1140.684925	-23.379063
1141.119111	-23.425100
1141.553628	-23.467699
1141.988475	-23.506926
1142.423655	-23.542803
1142.859166	-23.575547
1143.295009	-23.605516
1143.731185	-23.633106
1144.167694	-23.658623
1144.604536	-23.682212
1145.041711	-23.704061
1145.479221	-23.724439
1145.917065	-23.743716
1146.355245	-23.762386
1146.793759	-23.780811
1147.232609	-23.799209
1147.671795	-23.817879
1148.111317	-23.837187
1148.551177	-23.857445
1148.991373	-23.878844
1149.431907	-23.901502
1149.872779	-23.925617
1150.313989	-23.951546
1150.755538	-23.979558
1151.197426	-24.009836
1151.639653	-24.042534
1152.082220	-24.077694
1152.525128	-24.115374
1152.968376	-24.155682
1153.411966	-24.198579
1153.855897	-24.244005
1154.300169	-24.291966
1154.744784	-24.342528
1155.189742	-24.395859
1155.635042	-24.451856
1156.080687	-24.510107
1156.526674	-24.570306
1156.973007	-24.632254
1157.419683	-24.695824
1157.866705	-24.760986
1158.314072	-24.827452
1158.761786	-24.894982
1159.209845	-24.963430
1159.658251	-25.032294
1160.107004	-25.100929
1160.556104	-25.168876
1161.005553	-25.235764
1161.455349	-25.301290
1161.905494	-25.365278
1162.355989	-25.427403
1162.806832	-25.487034
1163.258026	-25.543566
1163.709570	-25.596540
1164.161464	-25.645458
1164.613710	-25.689867
1165.066307	-25.729521
1165.519256	-25.764262
1165.972558	-25.793956
1166.426212	-25.818359
1166.880219	-25.836996
1167.334580	-25.849418
1167.789295	-25.855425
1168.244364	-25.855110
1168.699788	-25.848696
1169.155567	-25.836318
1169.611702	-25.818056
1170.068193	-25.794050
1170.525041	-25.764448
1170.982245	-25.729295
1171.439807	-25.688628
1171.897726	-25.642843
1172.356004	-25.592675
1172.814640	-25.538737
1173.273635	-25.481313
1173.732989	-25.420637
1174.192703	-25.356961
1174.652778	-25.290477
1175.113213	-25.221503
1175.574009	-25.150547
1176.035167	-25.078081
1176.496687	-25.004691
1176.958569	-24.931000
1177.420814	-24.857243
1177.883422	-24.783347
1178.346394	-24.709331
1178.809730	-24.635441
1179.273430	-24.562217
1179.737496	-24.490241
1180.201927	-24.419712
1180.666723	-24.350706
1181.131886	-24.283406
1181.597416	-24.217770
1182.063312	-24.153712
1182.529576	-24.091411
1182.996209	-24.031211
1183.463209	-23.973513
1183.930579	-23.918566
1184.398317	-23.866264
1184.866426	-23.816313
1185.334904	-23.768540
1185.803754	-23.722915
1186.272974	-23.679599
1186.742566	-23.638889
1187.212529	-23.600994
1187.682865	-23.565902
1188.153574	-23.533289
1188.624656	-23.502823
1189.096112	-23.474330
1189.567942	-23.447823
1190.040147	-23.423448
1190.512726	-23.401309
1190.985681	-23.381349
1191.459012	-23.363315
1191.932720	-23.346916
1192.406804	-23.331862
1192.881265	-23.317822
1193.356104	-23.304763
1193.831322	-23.292876
1194.306918	-23.282146
1194.782893	-23.272273
1195.259248	-23.262785
1195.735982	-23.253274
1196.213097	-23.243446
1196.690593	-23.233045
1197.168471	-23.222128
1197.646730	-23.210839
1198.125371	-23.198881
1198.604395	-23.185747
1199.083803	-23.170927
1199.563594	-23.153895
1200.043769	-23.134411
1200.524329	-23.112675
1201.005273	-23.088758
1201.486604	-23.062277
1201.968320	-23.032752
1202.450422	-22.999756
1202.932912	-22.962942
1203.415789	-22.922195
1203.899054	-22.877591
1204.382707	-22.829253
1204.866748	-22.777143
1205.351179	-22.720893
1205.836000	-22.660030
1206.321211	-22.594279
1206.806812	-22.523731
1207.292805	-22.448826
1207.779189	-22.369766
1208.265965	-22.286429
1208.753134	-22.198805
1209.240696	-22.106880
1209.728651	-22.010510
1210.217000	-21.909790
1210.705744	-21.805171
1211.194883	-21.697152
1211.684417	-21.585866
1212.174347	-21.471127
1212.664673	-21.352851
1213.155396	-21.231296
1213.646516	-21.107000
1214.138034	-20.980389
1214.629951	-20.851651
1215.122266	-20.720928
1215.614980	-20.588313
1216.108095	-20.453835
1216.601609	-20.317643
1217.095524	-20.180123
1217.589841	-20.041708
1218.084559	-19.902601
1218.579679	-19.762837
1219.075202	-19.622512
1219.571128	-19.481769
1220.067458	-19.340748
1220.564191	-19.199724
1221.061330	-19.058976
1221.558874	-18.918572
1222.056823	-18.778594
1222.555178	-18.639104
1223.053940	-18.500121
1223.553109	-18.361805
1224.052686	-18.224406
1224.552671	-18.088068
1225.053065	-17.952784
1225.553867	-17.818613
1226.055079	-17.685633
1226.556702	-17.553809
1227.058735	-17.423193
1227.561179	-17.293965
1228.064035	-17.166243
1228.567303	-17.040011
1229.070983	-16.915223
1229.575077	-16.791891
1230.079585	-16.670080
1230.584506	-16.549870
1231.089842	-16.431256
1231.595594	-16.314240
1232.101761	-16.198889
1232.608345	-16.085183
1233.115345	-15.973031
1233.622762	-15.862458
1234.130597	-15.753579
1234.638851	-15.646431
1235.147523	-15.540964
1235.656615	-15.437115
1236.166126	-15.334848
1236.676058	-15.234191
1237.186411	-15.135151
1237.697185	-15.037766
1238.208381	-14.942075
1238.719999	-14.848015
1239.232040	-14.755486
1239.744505	-14.664460
1240.257394	-14.575018
1240.770708	-14.487230
1241.284446	-14.401070
1241.798610	-14.316501
1242.313201	-14.233443
1242.828218	-14.151822
1243.343662	-14.071681
1243.859534	-13.993117
1244.375834	-13.916155
1244.892563	-13.840729
1245.409721	-13.766743
1245.927309	-13.694166
1246.445327	-13.623049
1246.963777	-13.553451
1247.482657	-13.485400
1248.001970	-13.418855
1248.521716	-13.353725
1249.041894	-13.289922
1249.562506	-13.227480
1250.083553	-13.166527
1250.605034	-13.107102
1251.126950	-13.049116
1251.649302	-12.992438
1252.172091	-12.937038
1252.695316	-12.883016
1253.218979	-12.830451
1253.743079	-12.779305
1254.267619	-12.729472
1254.792597	-12.680891
1255.318015	-12.633564
1255.843874	-12.587533
1256.370173	-12.542876
1256.896913	-12.499604
1257.424095	-12.457575
1257.951720	-12.416674
1258.479787	-12.376972
1259.008298	-12.338577
1259.537254	-12.301490
1260.066654	-12.265628
1260.596499	-12.230906
1261.126790	-12.197290
1261.657527	-12.164836
1262.188711	-12.133618
1262.720342	-12.103645
1263.252422	-12.074825
1263.784950	-12.047057
1264.317928	-12.020373
1264.851355	-11.994852
1265.385232	-11.970501
1265.919560	-11.947286
1266.454340	-11.925169
1266.989572	-11.904085
1267.525256	-11.884045
1268.061394	-11.865164
1268.597985	-11.847422
1269.135031	-11.830706
1269.672531	-11.815028
1270.210487	-11.800416
1270.748899	-11.786841
1271.287768	-11.774319
1271.827094	-11.762845
1272.366877	-11.752383
1272.907119	-11.742911
1273.447820	-11.734421
1273.988981	-11.726920
1274.530601	-11.720416
1275.072683	-11.714857
1275.615226	-11.710212
1276.158230	-11.706490
1276.701697	-11.703652
1277.245627	-11.701666
1277.790021	-11.700532
1278.334879	-11.700238
1278.880202	-11.700758
1279.425991	-11.702031
1279.972245	-11.703991
1280.518966	-11.706626
1281.066155	-11.709979
1281.613811	-11.714022
1282.161936	-11.718641
1282.710529	-11.723745
1283.259593	-11.729323
1283.809126	-11.735408
1284.359131	-11.741999
1284.909607	-11.748990
1285.460555	-11.756254
1286.011976	-11.763741
1286.563870	-11.771473
1287.116237	-11.779480
1287.669080	-11.787695
1288.222397	-11.795922
1288.776191	-11.804090
1289.330460	-11.812263
1289.885207	-11.820466
1290.440431	-11.828597
1290.996133	-11.836479
1291.552314	-11.844038
1292.108975	-11.851321
1292.666115	-11.858350
1293.223737	-11.865063
1293.781839	-11.871314
1294.340424	-11.876966
1294.899491	-11.882010
1295.459041	-11.886578
1296.019075	-11.890659
1296.579593	-11.894028
1297.140597	-11.896526
1297.702086	-11.898270
1298.264061	-11.899369
1298.826524	-11.899745
1299.389474	-11.899265
1299.952912	-11.897882
1300.516839	-11.895604
1301.081255	-11.892513
1301.646162	-11.888662
1302.211559	-11.883963
1302.777448	-11.878321
1303.343829	-11.871785
1303.910702	-11.864514
1304.478069	-11.856545
1305.045930	-11.847803
1305.614285	-11.838246
1306.183136	-11.827953
1306.752483	-11.817108
1307.322326	-11.805780
1307.892666	-11.793901
1308.463504	-11.781468
1309.034841	-11.768605
1309.606677	-11.755452
1310.179012	-11.742117
1310.751849	-11.728607
1311.325186	-11.714889
1311.899025	-11.701086
1312.473366	-11.687385
1313.048211	-11.673861
1313.623559	-11.660509
1314.199412	-11.647361
1314.775770	-11.634539
1315.352634	-11.622176
1315.930004	-11.610339
1316.507881	-11.599080
1317.086266	-11.588385
1317.665159	-11.578305
1318.244562	-11.569006
1318.824474	-11.560573
1319.404897	-11.552978
1319.985831	-11.546173
1320.567276	-11.540238
1321.149234	-11.535310
1321.731706	-11.531388
1322.314691	-11.528407
1322.898190	-11.526332
1323.482205	-11.525184
1324.066736	-11.525050
1324.651783	-11.525936
1325.237347	-11.527705
1325.823430	-11.530234
1326.410031	-11.533578
1326.997151	-11.537804
1327.584791	-11.542775
1328.172952	-11.548308
1328.761634	-11.554348
1329.350839	-11.560896
1329.940566	-11.567931
1330.530817	-11.575286
1331.121592	-11.582737
1331.712891	-11.590213
1332.304716	-11.597742
1332.897068	-11.605248
1333.489946	-11.612502
1334.083352	-11.619272
1334.677287	-11.625562
1335.271750	-11.631405
1335.866744	-11.636637
1336.462268	-11.641035
1337.058323	-11.644509
1337.654910	-11.647078
1338.252029	-11.648731
1338.849682	-11.649342
1339.447869	-11.648743
1340.046591	-11.646961
1340.645848	-11.644117
1341.245641	-11.640176
1341.845972	-11.635014
1342.446840	-11.628629
1343.048246	-11.621171
1343.650191	-11.612769
1344.252677	-11.603421
1344.855702	-11.593106
1345.459269	-11.581936
1346.063379	-11.570129
1346.668030	-11.557818
1347.273226	-11.545029
1347.878965	-11.531815
1348.485250	-11.518380
1349.092080	-11.504943
1349.699456	-11.491585
1350.307380	-11.478343
1350.915851	-11.465339
1351.524871	-11.452782
1352.134441	-11.440799
1352.744560	-11.429397
1353.355231	-11.418607
1353.966453	-11.408544
1354.578227	-11.399349
1355.190555	-11.391028
1355.803436	-11.383479
1356.416872	-11.376704
1357.030863	-11.370831
1357.645411	-11.365808
1358.260515	-11.361469
1358.876177	-11.357703
1359.492397	-11.354491
1360.109176	-11.351808
1360.726516	-11.349490
1361.344416	-11.347293
1361.962877	-11.345123
1362.581901	-11.342934
1363.201487	-11.340547
1363.821637	-11.337725
1364.442352	-11.334305
1365.063632	-11.330271
1365.685478	-11.325546
1366.307891	-11.319895
1366.930871	-11.313152
1367.554420	-11.305358
1368.178538	-11.296544
1368.803226	-11.286612
1369.428485	-11.275471
1370.054315	-11.263190
1370.680717	-11.249945
1371.307693	-11.235784
1371.935242	-11.220682
1372.563366	-11.204779
1373.192065	-11.188363
1373.821341	-11.171589
1374.451193	-11.154505
1375.081623	-11.137267
1375.712632	-11.120189
1376.344221	-11.103502
1376.976389	-11.087240
1377.609139	-11.071502
1378.242470	-11.056573
1378.876384	-11.042656
1379.510881	-11.029741
1380.145963	-11.017815
1380.781629	-11.007020
1381.417881	-10.997493
1382.054720	-10.989121
1382.692147	-10.981759
1383.330161	-10.975419
1383.968765	-10.970112
1384.607959	-10.965627
1385.247743	-10.961707
1385.888119	-10.958232
1386.529087	-10.955160
1387.170648	-10.952225
1387.812804	-10.949094
1388.455554	-10.945645
1389.098899	-10.941828
1389.742842	-10.937433
1390.387381	-10.932210
1391.032519	-10.926091
1391.678256	-10.919118
1392.324592	-10.911238
1392.971529	-10.902350
1393.619068	-10.892546
1394.267208	-10.882038
1394.915952	-10.870918
1395.565300	-10.859230
