# 2022-03-21_14.00.41
# shape = sech2
# FWHM_ps = 0.1
# carrier_nm = 1542
# frep_MHz = 12126
# pow_mW = 8000
# GDD = 0.0
# propa_len = 0.10555555555555557
# untap_len = 0.01
# taper_len = 0.04555555555555556
# waist_len = 0.02
# uptap_len = 0.02
# untap_scale = 1.0
# waist_scale = 0.30000000000000004
# workingDir = NL_20110305_12 (Spirou)
# axis = slow
# window_ps = 10.0
# steps = 200
# points = 13000
# 
# wavelength [nm]	 power spectral density [dB]
1000.248639	-22.782352
1000.582480	-22.645126
1000.916545	-22.510971
1001.250832	-22.377105
1001.585343	-22.243643
1001.920077	-22.110656
1002.255035	-21.978177
1002.590218	-21.846229
1002.925624	-21.714847
1003.261255	-21.584061
1003.597111	-21.453872
1003.933192	-21.324291
1004.269497	-21.195342
1004.606029	-21.067029
1004.942785	-20.939358
1005.279768	-20.812360
1005.616977	-20.686067
1005.954412	-20.560502
1006.292074	-20.435712
1006.629962	-20.311777
1006.968077	-20.188767
1007.306420	-20.066742
1007.644990	-19.945772
1007.983787	-19.825945
1008.322813	-19.707336
1008.662067	-19.589996
1009.001549	-19.473973
1009.341259	-19.359330
1009.681199	-19.246114
1010.021367	-19.134361
1010.361765	-19.024090
1010.702392	-18.915304
1011.043250	-18.807999
1011.384337	-18.702163
1011.725654	-18.597759
1012.067202	-18.494753
1012.408980	-18.393123
1012.750989	-18.292843
1013.093230	-18.193870
1013.435702	-18.096164
1013.778405	-17.999692
1014.121341	-17.904428
1014.464508	-17.810355
1014.807908	-17.717464
1015.151540	-17.625750
1015.495405	-17.535211
1015.839503	-17.445853
1016.183835	-17.357687
1016.528400	-17.270727
1016.873198	-17.184976
1017.218231	-17.100431
1017.563498	-17.017095
1017.908999	-16.934967
1018.254735	-16.854037
1018.600707	-16.774281
1018.946913	-16.695674
1019.293354	-16.618202
1019.640032	-16.541840
1019.986945	-16.466552
1020.334094	-16.392296
1020.681480	-16.319030
1021.029102	-16.246704
1021.376961	-16.175269
1021.725058	-16.104670
1022.073391	-16.034844
1022.421962	-15.965741
1022.770772	-15.897322
1023.119819	-15.829549
1023.469104	-15.762385
1023.818628	-15.695805
1024.168391	-15.629801
1024.518393	-15.564386
1024.868634	-15.499569
1025.219115	-15.435366
1025.569836	-15.371801
1025.920796	-15.308896
1026.271997	-15.246666
1026.623438	-15.185131
1026.975121	-15.124303
1027.327044	-15.064176
1027.679208	-15.004745
1028.031614	-14.946009
1028.384262	-14.887957
1028.737152	-14.830559
1029.090284	-14.773790
1029.443659	-14.717633
1029.797276	-14.662060
1030.151137	-14.607064
1030.505240	-14.552653
1030.859587	-14.498839
1031.214178	-14.445658
1031.569013	-14.393167
1031.924093	-14.341412
1032.279417	-14.290436
1032.634985	-14.240291
1032.990799	-14.191019
1033.346858	-14.142663
1033.703162	-14.095250
1034.059712	-14.048784
1034.416509	-14.003274
1034.773551	-13.958717
1035.130841	-13.915086
1035.488377	-13.872354
1035.846160	-13.830500
1036.204190	-13.789508
1036.562468	-13.749363
1036.920994	-13.710063
1037.279768	-13.671619
1037.638790	-13.634071
1037.998061	-13.597465
1038.357581	-13.561827
1038.717350	-13.527179
1039.077368	-13.493547
1039.437636	-13.460937
1039.798154	-13.429352
1040.158922	-13.398780
1040.519940	-13.369195
1040.881209	-13.340571
1041.242729	-13.312873
1041.604501	-13.286063
1041.966524	-13.260096
1042.328798	-13.234934
1042.691325	-13.210556
1043.054103	-13.186954
1043.417135	-13.164123
1043.780419	-13.142058
1044.143956	-13.120762
1044.507746	-13.100246
1044.871791	-13.080524
1045.236088	-13.061603
1045.600641	-13.043468
1045.965447	-13.026102
1046.330508	-13.009490
1046.695824	-12.993597
1047.061395	-12.978386
1047.427222	-12.963832
1047.793304	-12.949922
1048.159642	-12.936638
1048.526237	-12.923963
1048.893088	-12.911897
1049.260196	-12.900453
1049.627561	-12.889635
1049.995183	-12.879457
1050.363063	-12.869925
1050.731201	-12.861044
1051.099597	-12.852825
1051.468251	-12.845270
1051.837164	-12.838381
1052.206336	-12.832155
1052.575767	-12.826574
1052.945458	-12.821626
1053.315409	-12.817309
1053.685619	-12.813620
1054.056090	-12.810554
1054.426821	-12.808131
1054.797814	-12.806385
1055.169067	-12.805329
1055.540582	-12.804977
1055.912359	-12.805347
1056.284398	-12.806454
1056.656698	-12.808296
1057.029262	-12.810869
1057.402088	-12.814185
1057.775177	-12.818254
1058.148530	-12.823082
1058.522146	-12.828661
1058.896027	-12.835003
1059.270171	-12.842141
1059.644580	-12.850091
1060.019254	-12.858878
1060.394193	-12.868540
1060.769397	-12.879117
1061.144867	-12.890643
1061.520602	-12.903136
1061.896604	-12.916610
1062.272872	-12.931100
1062.649407	-12.946625
1063.026210	-12.963168
1063.403279	-12.980727
1063.780616	-12.999298
1064.158221	-13.018849
1064.536094	-13.039318
1064.914235	-13.060631
1065.292645	-13.082751
1065.671325	-13.105655
1066.050273	-13.129316
1066.429491	-13.153735
1066.808979	-13.178932
1067.188738	-13.204936
1067.568766	-13.231758
1067.949066	-13.259389
1068.329636	-13.287806
1068.710478	-13.316964
1069.091592	-13.346792
1069.472977	-13.377201
1069.854635	-13.408127
1070.236565	-13.439531
1070.618768	-13.471373
1071.001243	-13.503634
1071.383993	-13.536333
1071.767016	-13.569512
1072.150313	-13.603211
1072.533884	-13.637416
1072.917730	-13.672116
1073.301850	-13.707311
1073.686246	-13.742971
1074.070917	-13.779083
1074.455864	-13.815679
1074.841087	-13.852823
1075.226586	-13.890556
1075.612362	-13.928872
1075.998415	-13.967772
1076.384745	-14.007224
1076.771353	-14.047154
1077.158238	-14.087495
1077.545401	-14.128210
1077.932843	-14.169306
1078.320564	-14.210823
1078.708564	-14.252855
1079.096842	-14.295547
1079.485401	-14.339075
1079.874240	-14.383585
1080.263358	-14.429144
1080.652757	-14.475730
1081.042438	-14.523283
1081.432399	-14.571664
1081.822641	-14.620677
1082.213166	-14.670150
1082.603972	-14.719999
1082.995061	-14.770196
1083.386433	-14.820776
1083.778087	-14.871867
1084.170025	-14.923619
1084.562246	-14.976137
1084.954751	-15.029498
1085.347541	-15.083732
1085.740615	-15.138772
1086.133973	-15.194492
1086.527617	-15.250726
1086.921546	-15.307288
1087.315761	-15.364020
1087.710262	-15.420834
1088.105050	-15.477693
1088.500124	-15.534611
1088.895485	-15.591693
1089.291134	-15.649095
1089.687070	-15.706986
1090.083294	-15.765589
1090.479806	-15.825158
1090.876607	-15.885904
1091.273696	-15.947955
1091.671075	-16.011338
1092.068744	-16.075941
1092.466702	-16.141482
1092.864950	-16.207661
1093.263489	-16.274234
1093.662319	-16.341047
1094.061440	-16.408161
1094.460852	-16.475871
1094.860555	-16.544622
1095.260551	-16.614888
1095.660840	-16.687081
1096.061421	-16.761362
1096.462295	-16.837542
1096.863462	-16.915103
1097.264923	-16.993287
1097.666678	-17.071277
1098.068727	-17.148374
1098.471071	-17.224241
1098.873710	-17.298962
1099.276644	-17.372957
1099.679874	-17.446784
1100.083400	-17.521025
1100.487222	-17.596037
1100.891340	-17.671718
1101.295756	-17.747572
1101.700468	-17.822851
1102.105478	-17.896667
1102.510787	-17.968270
1102.916393	-18.037373
1103.322298	-18.104174
1103.728502	-18.169303
1104.135005	-18.233648
1104.541807	-18.298115
1104.948909	-18.363323
1105.356312	-18.429476
1105.764015	-18.496416
1106.172019	-18.563667
1106.580324	-18.630717
1106.988931	-18.697179
1107.397840	-18.763020
1107.807051	-18.828593
1108.216564	-18.894523
1108.626380	-18.961641
1109.036500	-19.030755
1109.446923	-19.102383
1109.857649	-19.176671
1110.268680	-19.253499
1110.680016	-19.332464
1111.091657	-19.413037
1111.503602	-19.494818
1111.915854	-19.577633
1112.328411	-19.661472
1112.741275	-19.746514
1113.154445	-19.833094
1113.567922	-19.921483
1113.981706	-20.011719
1114.395798	-20.103624
1114.810198	-20.196717
1115.224906	-20.290233
1115.639923	-20.383423
1116.055249	-20.475723
1116.470884	-20.566839
1116.886829	-20.656693
1117.303084	-20.745508
1117.719650	-20.833595
1118.136526	-20.921085
1118.553713	-21.007901
1118.971212	-21.093608
1119.389022	-21.177463
1119.807145	-21.258830
1120.225580	-21.337319
1120.644328	-21.412815
1121.063389	-21.485690
1121.482763	-21.556630
1121.902452	-21.626271
1122.322454	-21.695137
1122.742771	-21.763472
1123.163404	-21.830999
1123.584351	-21.897253
1124.005614	-21.961971
1124.427193	-22.025173
1124.849089	-22.087300
1125.271301	-22.149342
1125.693830	-22.212359
1126.116677	-22.277160
1126.539842	-22.344251
1126.963324	-22.413741
1127.387126	-22.485218
1127.811246	-22.558163
1128.235685	-22.632328
1128.660444	-22.707881
1129.085522	-22.785490
1129.510922	-22.866029
1129.936641	-22.950110
1130.362682	-23.037995
1130.789044	-23.129491
1131.215728	-23.224067
1131.642734	-23.320990
1132.070063	-23.419670
1132.497714	-23.520100
1132.925689	-23.622495
1133.353987	-23.727143
1133.782610	-23.834317
1134.211556	-23.943871
1134.640827	-24.055185
1135.070424	-24.167528
1135.500345	-24.280085
1135.930593	-24.392366
1136.361166	-24.504437
1136.792067	-24.616355
1137.223294	-24.728124
1137.654848	-24.839737
1138.086730	-24.950622
1138.518940	-25.059960
1138.951479	-25.167069
1139.384346	-25.271402
1139.817543	-25.372757
1140.251069	-25.471530
1140.684925	-25.568138
1141.119111	-25.662714
1141.553628	-25.755113
1141.988475	-25.844640
1142.423655	-25.930474
1142.859166	-26.012188
1143.295009	-26.089602
1143.731185	-26.163242
1144.167694	-26.234183
1144.604536	-26.303244
1145.041711	-26.371110
1145.479221	-26.437855
1145.917065	-26.502847
1146.355245	-26.565418
1146.793759	-26.625472
1147.232609	-26.683420
1147.671795	-26.740395
1148.111317	-26.797820
1148.551177	-26.856879
1148.991373	-26.918247
1149.431907	-26.981877
1149.872779	-27.047238
1150.313989	-27.113540
1150.755538	-27.180484
1151.197426	-27.248553
1151.639653	-27.318903
1152.082220	-27.392883
1152.525128	-27.471320
1152.968376	-27.554298
1153.411966	-27.641287
1153.855897	-27.731062
1154.300169	-27.822480
1154.744784	-27.915164
1155.189742	-28.009252
1155.635042	-28.105751
1156.080687	-28.205800
1156.526674	-28.309662
1156.973007	-28.416793
1157.419683	-28.525853
1157.866705	-28.635390
1158.314072	-28.744346
1158.761786	-28.852274
1159.209845	-28.959710
1159.658251	-29.067815
1160.107004	-29.177195
1160.556104	-29.287722
1161.005553	-29.398395
1161.455349	-29.507554
1161.905494	-29.613903
1162.355989	-29.716838
1162.806832	-29.816488
1163.258026	-29.913580
1163.709570	-30.009069
1164.161464	-30.103386
1164.613710	-30.195739
1165.066307	-30.284757
1165.519256	-30.368770
1165.972558	-30.446382
1166.426212	-30.517325
1166.880219	-30.581958
1167.334580	-30.641122
1167.789295	-30.695554
1168.244364	-30.744749
1168.699788	-30.787544
1169.155567	-30.822536
1169.611702	-30.848028
1170.068193	-30.862990
1170.525041	-30.868010
1170.982245	-30.864064
1171.439807	-30.852246
1171.897726	-30.833232
1172.356004	-30.806842
1172.814640	-30.772314
1173.273635	-30.728545
1173.732989	-30.674755
1174.192703	-30.611573
1174.652778	-30.540361
1175.113213	-30.462825
1175.574009	-30.380601
1176.035167	-30.294463
1176.496687	-30.203858
1176.958569	-30.107731
1177.420814	-30.005838
1177.883422	-29.898504
1178.346394	-29.786942
1178.809730	-29.673331
1179.273430	-29.559331
1179.737496	-29.445412
1180.201927	-29.330906
1180.666723	-29.214630
1181.131886	-29.096031
1181.597416	-28.975193
1182.063312	-28.853490
1182.529576	-28.733004
1182.996209	-28.614893
1183.463209	-28.499407
1183.930579	-28.385520
1184.398317	-28.272093
1184.866426	-28.158320
1185.334904	-28.044441
1185.803754	-27.932218
1186.272974	-27.823410
1186.742566	-27.719005
1187.212529	-27.618549
1187.682865	-27.520506
1188.153574	-27.423604
1188.624656	-27.327517
1189.096112	-27.233251
1189.567942	-27.142237
1190.040147	-27.055861
1190.512726	-26.974512
1190.985681	-26.897174
1191.459012	-26.822052
1191.932720	-26.747932
1192.406804	-26.675381
1192.881265	-26.605658
1193.356104	-26.540078
1193.831322	-26.479184
1194.306918	-26.422367
1194.782893	-26.368059
1195.259248	-26.314451
1195.735982	-26.261196
1196.213097	-26.209337
1196.690593	-26.160495
1197.168471	-26.115241
1197.646730	-26.073013
1198.125371	-26.032500
1198.604395	-25.991719
1199.083803	-25.949657
1199.563594	-25.906643
1200.043769	-25.864132
1200.524329	-25.823053
1201.005273	-25.783169
1201.486604	-25.743043
1201.968320	-25.700516
1202.450422	-25.654413
1202.932912	-25.604635
1203.415789	-25.552196
1203.899054	-25.498182
1204.382707	-25.442818
1204.866748	-25.384831
1205.351179	-25.322060
1205.836000	-25.253279
1206.321211	-25.178345
1206.806812	-25.098025
1207.292805	-25.013461
1207.779189	-24.925202
1208.265965	-24.832431
1208.753134	-24.733644
1209.240696	-24.627692
1209.728651	-24.514565
1210.217000	-24.395191
1210.705744	-24.270820
1211.194883	-24.142318
1211.684417	-24.009229
1212.174347	-23.870585
1212.664673	-23.725765
1213.155396	-23.574866
1213.646516	-23.418961
1214.138034	-23.259310
1214.629951	-23.096857
1215.122266	-22.931573
1215.614980	-22.762834
1216.108095	-22.590130
1216.601609	-22.413831
1217.095524	-22.235065
1217.589841	-22.054804
1218.084559	-21.873760
1218.579679	-21.691934
1219.075202	-21.508969
1219.571128	-21.324532
1220.067458	-21.138989
1220.564191	-20.953223
1221.061330	-20.768095
1221.558874	-20.583968
1222.056823	-20.400656
1222.555178	-20.217904
1223.053940	-20.035512
1223.553109	-19.853869
1224.052686	-19.673504
1224.552671	-19.495085
1225.053065	-19.318671
1225.553867	-19.144007
1226.055079	-18.970864
1226.556702	-18.799169
1227.058735	-18.629156
1227.561179	-18.461245
1228.064035	-18.295762
1228.567303	-18.132708
1229.070983	-17.971813
1229.575077	-17.812749
1230.079585	-17.655613
1230.584506	-17.500593
1231.089842	-17.347943
1231.595594	-17.197763
1232.101761	-17.050012
1232.608345	-16.904430
1233.115345	-16.760842
1233.622762	-16.619283
1234.130597	-16.479944
1234.638851	-16.342964
1235.147523	-16.208331
1235.656615	-16.075973
1236.166126	-15.945681
1236.676058	-15.817402
1237.186411	-15.691145
1237.697185	-15.567039
1238.208381	-15.445191
1238.719999	-15.325562
1239.232040	-15.207976
1239.744505	-15.092304
1240.257394	-14.978537
1240.770708	-14.866761
1241.284446	-14.757018
1241.798610	-14.649361
1242.313201	-14.543730
1242.828218	-14.439929
1243.343662	-14.337846
1243.859534	-14.237554
1244.375834	-14.139108
1244.892563	-14.042577
1245.409721	-13.947915
1245.927309	-13.854996
1246.445327	-13.763659
1246.963777	-13.673843
1247.482657	-13.585694
1248.001970	-13.499337
1248.521716	-13.414701
1249.041894	-13.331638
1249.562506	-13.250011
1250.083553	-13.169768
1250.605034	-13.090979
1251.126950	-13.013787
1251.649302	-12.938233
1252.172091	-12.864161
1252.695316	-12.791382
1253.218979	-12.719883
1253.743079	-12.649773
1254.267619	-12.581147
1254.792597	-12.514076
1255.318015	-12.448433
1255.843874	-12.384036
1256.370173	-12.320810
1256.896913	-12.258931
1257.424095	-12.198570
1257.951720	-12.139751
1258.479787	-12.082314
1259.008298	-12.026121
1259.537254	-11.971086
1260.066654	-11.917392
1260.596499	-11.865241
1261.126790	-11.814624
1261.657527	-11.765355
1262.188711	-11.717280
1262.720342	-11.670396
1263.252422	-11.624880
1263.784950	-11.580918
1264.317928	-11.538453
1264.851355	-11.497290
1265.385232	-11.457243
1265.919560	-11.418397
1266.454340	-11.380977
1266.989572	-11.345067
1267.525256	-11.310536
1268.061394	-11.277194
1268.597985	-11.244981
1269.135031	-11.213986
1269.672531	-11.184420
1270.210487	-11.156315
1270.748899	-11.129469
1271.287768	-11.103717
1271.827094	-11.079096
1272.366877	-11.055742
1272.907119	-11.033817
1273.447820	-11.013283
1273.988981	-10.993909
1274.530601	-10.975583
1275.072683	-10.958440
1275.615226	-10.942674
1276.158230	-10.928328
1276.701697	-10.915262
1277.245627	-10.903310
1277.790021	-10.892436
1278.334879	-10.882832
1278.880202	-10.874689
1279.425991	-10.867897
1279.972245	-10.862271
1280.518966	-10.857719
1281.066155	-10.854335
1281.613811	-10.852267
1282.161936	-10.851616
1282.710529	-10.852191
1283.259593	-10.853765
1283.809126	-10.856359
1284.359131	-10.860129
1284.909607	-10.865184
1285.460555	-10.871443
1286.011976	-10.878637
1286.563870	-10.886659
1287.116237	-10.895611
1287.669080	-10.905618
1288.222397	-10.916663
1288.776191	-10.928494
1289.330460	-10.940925
1289.885207	-10.953973
1290.440431	-10.967752
1290.996133	-10.982273
1291.552314	-10.997367
1292.108975	-11.012792
1292.666115	-11.028444
1293.223737	-11.044411
1293.781839	-11.060759
1294.340424	-11.077372
1294.899491	-11.094005
1295.459041	-11.110484
1296.019075	-11.126832
1296.579593	-11.143106
1297.140597	-11.159304
1297.702086	-11.175199
1298.264061	-11.190536
1298.826524	-11.205301
1299.389474	-11.219585
1299.952912	-11.233384
1300.516839	-11.246561
1301.081255	-11.258871
1301.646162	-11.270204
1302.211559	-11.280668
1302.777448	-11.290332
1303.343829	-11.299113
1303.910702	-11.306785
1304.478069	-11.313231
1305.045930	-11.318534
1305.614285	-11.322839
1306.183136	-11.326161
1306.752483	-11.328315
1307.322326	-11.329145
1307.892666	-11.328793
1308.463504	-11.327464
1309.034841	-11.325202
1309.606677	-11.321927
1310.179012	-11.317526
1310.751849	-11.312109
1311.325186	-11.305940
1311.899025	-11.299167
1312.473366	-11.291738
1313.048211	-11.283566
1313.623559	-11.274783
1314.199412	-11.265676
1314.775770	-11.256474
1315.352634	-11.247134
1315.930004	-11.237597
1316.507881	-11.227990
1317.086266	-11.218668
1317.665159	-11.209816
1318.244562	-11.201380
1318.824474	-11.193336
1319.404897	-11.185832
1319.985831	-11.179143
1320.567276	-11.173460
1321.149234	-11.168761
1321.731706	-11.164916
1322.314691	-11.162073
1322.898190	-11.160500
1323.482205	-11.160333
1324.066736	-11.161437
1324.651783	-11.163677
1325.237347	-11.167192
1325.823430	-11.172213
1326.410031	-11.178779
1326.997151	-11.186626
1327.584791	-11.195624
1328.172952	-11.205900
1328.761634	-11.217577
1329.350839	-11.230565
1329.940566	-11.244580
1330.530817	-11.259469
1331.121592	-11.275270
1331.712891	-11.292075
1332.304716	-11.309642
1332.897068	-11.327607
1333.489946	-11.345850
1334.083352	-11.364420
1334.677287	-11.383256
1335.271750	-11.402040
1335.866744	-11.420401
1336.462268	-11.438278
1337.058323	-11.455734
1337.654910	-11.472554
1338.252029	-11.488370
1338.849682	-11.502957
1339.447869	-11.516315
1340.046591	-11.528470
1340.645848	-11.539258
1341.245641	-11.548301
1341.845972	-11.555532
1342.446840	-11.561095
1343.048246	-11.565020
1343.650191	-11.567136
1344.252677	-11.567290
1344.855702	-11.565579
1345.459269	-11.562275
1346.063379	-11.557417
1346.668030	-11.550882
1347.273226	-11.542744
1347.878965	-11.533299
1348.485250	-11.522803
1349.092080	-11.511350
1349.699456	-11.498952
1350.307380	-11.485781
1350.915851	-11.472235
1351.524871	-11.458551
1352.134441	-11.444771
1352.744560	-11.430963
1353.355231	-11.417439
1353.966453	-11.404526
1354.578227	-11.392320
1355.190555	-11.380798
1355.803436	-11.370095
1356.416872	-11.360511
1357.030863	-11.352162
1357.645411	-11.344953
1358.260515	-11.338872
1358.876177	-11.334013
1359.492397	-11.330508
1360.109176	-11.328272
1360.726516	-11.327050
1361.344416	-11.326776
1361.962877	-11.327508
1362.581901	-11.329153
1363.201487	-11.331407
1363.821637	-11.334012
1364.442352	-11.336881
1365.063632	-11.339980
1365.685478	-11.343034
1366.307891	-11.345657
1366.930871	-11.347692
1367.554420	-11.349148
1368.178538	-11.349899
1368.803226	-11.349604
1369.428485	-11.348024
1370.054315	-11.345248
1370.680717	-11.341396
1371.307693	-11.336254
1371.935242	-11.329647
1372.563366	-11.321761
1373.192065	-11.312874
1373.821341	-11.303044
1374.451193	-11.292138
1375.081623	-11.280376
1375.712632	-11.268241
1376.344221	-11.255941
1376.976389	-11.243431
1377.609139	-11.230866
1378.242470	-11.218752
1378.876384	-11.207494
1379.510881	-11.196966
1380.145963	-11.187135
1380.781629	-11.178527
1381.417881	-11.171497
1382.054720	-11.165837
1382.692147	-11.161300
1383.330161	-11.158174
1383.968765	-11.156767
1384.607959	-11.156763
1385.247743	-11.157709
1385.888119	-11.159626
1386.529087	-11.162724
1387.170648	-11.166685
1387.812804	-11.170868
1388.455554	-11.175128
1389.098899	-11.179671
1389.742842	-11.184199
1390.387381	-11.188013
1391.032519	-11.190970
1391.678256	-11.193376
1392.324592	-11.195011
1392.971529	-11.195320
1393.619068	-11.194268
1394.267208	-11.192357
1394.915952	-11.189652
