# 2022-03-21_16.49.41
# shape = sech2
# FWHM_ps = 0.1
# carrier_nm = 1542
# frep_MHz = 12126
# pow_mW = 8000
# GDD = 0.0
# propa_len = 0.11333333333333334
# untap_len = 0.01
# taper_len = 0.05333333333333333
# waist_len = 0.02
# uptap_len = 0.02
# untap_scale = 1.0
# waist_scale = 0.35
# workingDir = NL_20110305_12 (Spirou)
# axis = slow
# window_ps = 10.0
# steps = 200
# points = 21700
# 
# wavelength [nm]	 power spectral density [dB]
600.043425	-127.360909
600.163550	-127.638311
600.283723	-127.839856
600.403943	-127.949560
600.524212	-127.962559
600.644529	-127.886819
600.764895	-127.742807
600.885308	-127.560017
601.005770	-127.371372
601.126280	-127.207791
601.246839	-127.095272
601.367446	-127.054273
601.488101	-127.100122
601.608804	-127.244520
601.729557	-127.498257
601.850357	-127.874281
601.971206	-128.390701
602.092104	-129.074163
602.213050	-129.963137
602.334045	-131.109736
602.455089	-132.575235
602.576181	-134.389567
602.697322	-136.344481
602.818511	-137.417644
602.939749	-136.323497
603.061036	-133.944902
603.182372	-131.565459
603.303757	-129.545982
603.425191	-127.894102
603.546673	-126.557028
603.668204	-125.484842
603.789785	-124.638934
603.911414	-123.990328
604.033092	-123.516906
604.154820	-123.201254
604.276596	-123.028878
604.398422	-122.986834
604.520297	-123.063275
604.642220	-123.247626
604.764193	-123.531093
604.886216	-123.907466
605.008287	-124.374006
605.130408	-124.932541
605.252578	-125.590200
605.374798	-126.359334
605.497066	-127.257243
605.619385	-128.305817
605.741752	-129.531519
605.864169	-130.965743
605.986636	-132.644294
606.109152	-134.602887
606.231718	-136.857151
606.354333	-139.327004
606.476998	-141.611219
606.599712	-142.768217
606.722476	-142.242056
606.845290	-140.748319
606.968154	-138.998998
607.091067	-137.225351
607.214030	-135.488355
607.337043	-133.832906
607.460106	-132.303931
607.583219	-130.935804
607.706381	-129.748434
607.829594	-128.748744
607.952856	-127.934379
608.076169	-127.297424
608.199531	-126.827244
608.322944	-126.512764
608.446407	-126.344304
608.569920	-126.315411
608.693483	-126.425159
608.817096	-126.680720
608.940759	-127.100559
609.064473	-127.719112
609.188237	-128.594708
609.312051	-129.825751
609.435916	-131.588933
609.559831	-134.243127
609.683796	-138.659464
609.807812	-145.563987
609.931878	-139.582214
610.055995	-133.571768
610.180162	-129.740634
610.304380	-126.979286
610.428648	-124.849695
610.552967	-123.146468
610.677337	-121.757598
610.801757	-120.614641
610.926228	-119.672067
611.050750	-118.897758
611.175323	-118.267988
611.299946	-117.764830
611.424620	-117.374868
611.549345	-117.088289
611.674121	-116.898389
611.798948	-116.801298
611.923826	-116.795629
612.048755	-116.882021
612.173734	-117.062774
612.298765	-117.341561
612.423847	-117.723042
612.548980	-118.212722
612.674165	-118.817074
612.799400	-119.543734
612.924687	-120.401947
613.050025	-121.403765
613.175414	-122.566060
613.300854	-123.914127
613.426346	-125.488297
613.551889	-127.356655
613.677484	-129.641803
613.803130	-132.584327
613.928827	-136.714738
614.054576	-143.028028
614.180377	-143.624886
614.306229	-137.501795
614.432132	-133.594907
614.558087	-130.950366
614.684094	-129.010634
614.810153	-127.521163
614.936263	-126.348053
615.062425	-125.411242
615.188639	-124.656711
615.314904	-124.044629
615.441222	-123.544680
615.567591	-123.133921
615.694012	-122.796198
615.820486	-122.522621
615.947011	-122.311679
616.073588	-122.168557
616.200217	-122.103844
616.326898	-122.131803
616.453632	-122.268862
616.580417	-122.532513
616.707255	-122.940335
616.834144	-123.508962
616.961086	-124.251857
617.088081	-125.171397
617.215127	-126.236985
617.342226	-127.335936
617.469378	-128.199871
617.596581	-128.429395
617.723837	-127.819231
617.851146	-126.611170
617.978507	-125.196176
618.105920	-123.819585
618.233386	-122.579277
618.360905	-121.499359
618.488476	-120.576194
618.616100	-119.798153
618.743777	-119.152753
618.871506	-118.629003
618.999288	-118.217974
619.127123	-117.912661
619.255011	-117.707589
619.382951	-117.598565
619.510945	-117.582442
619.638991	-117.656741
619.767090	-117.819505
619.895243	-118.069796
620.023448	-118.408527
620.151706	-118.839631
620.280017	-119.371876
620.408382	-120.021298
620.536799	-120.814415
620.665270	-121.792268
620.793794	-123.015901
620.922371	-124.574029
621.051002	-126.585646
621.179686	-129.130746
621.308423	-131.675130
621.437213	-131.736551
621.566057	-128.986751
621.694954	-126.056168
621.823905	-123.680234
621.952909	-121.815114
622.081967	-120.348678
622.211079	-119.194720
622.340244	-118.292561
622.469462	-117.598723
622.598735	-117.080642
622.728061	-116.712544
622.857441	-116.473103
622.986874	-116.344349
623.116361	-116.310961
623.245903	-116.359551
623.375498	-116.477763
623.505147	-116.653104
623.634850	-116.871433
623.764606	-117.114928
623.894417	-117.360054
624.024282	-117.576928
624.154201	-117.732091
624.284174	-117.795712
624.414202	-117.751361
624.544283	-117.603414
624.674419	-117.377156
624.804609	-117.111048
624.934853	-116.846169
625.065151	-116.618256
625.195504	-116.453804
625.325911	-116.369566
625.456373	-116.373901
625.586889	-116.468387
625.717460	-116.649352
625.848085	-116.909357
625.978764	-117.238511
626.109498	-117.625561
626.240287	-118.058483
626.371131	-118.524147
626.502029	-119.006277
626.632982	-119.481224
626.763989	-119.912446
626.895052	-120.246496
627.026169	-120.417445
627.157341	-120.366466
627.288568	-120.070876
627.419850	-119.560320
627.551187	-118.903704
627.682579	-118.179574
627.814026	-117.453813
627.945528	-116.772294
628.077085	-116.162704
628.208697	-115.639191
628.340364	-115.206841
628.472087	-114.864773
628.603865	-114.607847
628.735698	-114.427606
628.867586	-114.313127
628.999530	-114.252151
629.131529	-114.232422
629.263584	-114.243214
629.395694	-114.276995
629.527859	-114.330749
629.660080	-114.406385
629.792357	-114.509949
629.924689	-114.649869
630.057077	-114.834655
630.189520	-115.070701
630.322019	-115.360571
630.454574	-115.701652
630.587184	-116.085302
630.719851	-116.496877
630.852573	-116.916862
630.985351	-117.323326
631.118185	-117.695632
631.251075	-118.019199
631.384021	-118.289745
631.517023	-118.515412
631.650081	-118.715965
631.783195	-118.919279
631.916365	-119.157126
632.049592	-119.461295
632.182874	-119.860022
632.316213	-120.374450
632.449608	-121.013721
632.583059	-121.766534
632.716567	-122.586034
632.850131	-123.368610
632.983751	-123.943588
633.117428	-124.118305
633.251161	-123.794459
633.384951	-123.038435
633.518797	-122.006396
633.652700	-120.837219
633.786660	-119.619176
633.920676	-118.404636
634.054749	-117.228931
634.188879	-116.120019
634.323065	-115.100834
634.457308	-114.188902
634.591608	-113.396153
634.725965	-112.729374
634.860379	-112.190883
634.994850	-111.779260
635.129377	-111.490030
635.263962	-111.316233
635.398604	-111.249034
635.533303	-111.278243
635.668058	-111.392689
635.802872	-111.580720
635.937742	-111.830842
636.072669	-112.132190
636.207654	-112.474688
636.342696	-112.848641
636.477796	-113.243637
636.612953	-113.646942
636.748167	-114.041463
636.883439	-114.404243
637.018768	-114.706824
637.154155	-114.918690
637.289599	-115.013983
637.425101	-114.979869
637.560660	-114.822426
637.696277	-114.565501
637.831952	-114.243756
637.967685	-113.894413
638.103475	-113.550960
638.239324	-113.239882
638.375230	-112.980064
638.511194	-112.783773
638.647215	-112.658077
638.783295	-112.606156
638.919433	-112.628341
639.055629	-112.722814
639.191883	-112.886061
639.328195	-113.113191
639.464565	-113.398161
639.600994	-113.733494
639.737481	-114.109251
639.874025	-114.511826
640.010629	-114.923005
640.147290	-115.319605
640.284010	-115.674161
640.420789	-115.957633
640.557625	-116.144684
640.694521	-116.219808
640.831474	-116.181173
640.968487	-116.040474
641.105558	-115.819027
641.242687	-115.541914
641.379876	-115.233061
641.517123	-114.912818
641.654429	-114.597376
641.791793	-114.299105
641.929216	-114.027333
642.066699	-113.788997
642.204240	-113.589072
642.341840	-113.430665
642.479499	-113.315110
642.617217	-113.242362
642.754994	-113.211066
642.892830	-113.218356
643.030726	-113.260098
643.168680	-113.331191
643.306694	-113.425721
643.444767	-113.537314
643.582899	-113.659377
643.721091	-113.785055
643.859342	-113.906884
643.997652	-114.016194
644.136022	-114.102707
644.274451	-114.154952
644.412940	-114.162469
644.551488	-114.119614
644.690096	-114.029808
644.828763	-113.908272
644.967490	-113.781888
645.106277	-113.686124
645.245124	-113.660655
645.384030	-113.745667
645.522997	-113.980115
645.662023	-114.402607
645.801109	-115.053981
645.940255	-115.981157
646.079460	-117.242016
646.218726	-118.906636
646.358052	-121.029819
646.497438	-123.467752
646.636884	-125.199455
646.776391	-124.556726
646.915957	-122.416397
647.055584	-120.322250
647.195271	-118.665521
647.335019	-117.431615
647.474826	-116.549770
647.614695	-115.955956
647.754623	-115.596424
647.894612	-115.420829
648.034662	-115.373462
648.174772	-115.385824
648.314943	-115.375205
648.455174	-115.256148
648.595466	-114.966766
648.735819	-114.494560
648.876233	-113.878024
649.016707	-113.182089
649.157242	-112.469422
649.297838	-111.785063
649.438495	-111.154668
649.579213	-110.589073
649.719992	-110.089555
649.860832	-109.651664
650.001733	-109.267894
650.142695	-108.929738
650.283718	-108.629294
650.424803	-108.360763
650.565949	-108.122100
650.707156	-107.916532
650.848424	-107.753371
650.989754	-107.647882
651.131145	-107.620562
651.272597	-107.696081
651.414111	-107.902329
651.555687	-108.270249
651.697324	-108.834911
651.839022	-109.638311
651.980782	-110.734805
652.122604	-112.200791
652.264488	-114.151038
652.406433	-116.757132
652.548441	-120.162222
652.690510	-123.295942
652.832640	-122.185685
652.974833	-118.922224
653.117088	-116.270989
653.259405	-114.347117
653.401784	-112.957885
653.544224	-111.963364
653.686727	-111.276453
653.829293	-110.843789
653.971920	-110.633005
654.114609	-110.624920
654.257361	-110.808466
654.400175	-111.177042
654.543052	-111.725487
654.685991	-112.446714
654.828992	-113.327030
654.972056	-114.339007
655.115183	-115.430577
655.258372	-116.512753
655.401623	-117.458384
655.544937	-118.135912
655.688314	-118.480217
655.831754	-118.538886
655.975256	-118.436659
656.118822	-118.302955
656.262450	-118.232540
656.406141	-118.284175
656.549894	-118.493557
656.693711	-118.887690
656.837591	-119.497560
656.981534	-120.371000
657.125540	-121.589676
657.269610	-123.292840
657.413742	-125.692587
657.557938	-128.814591
657.702196	-130.183678
657.846519	-126.807499
657.990904	-122.908110
658.135353	-119.841916
658.279866	-117.455050
658.424441	-115.556477
658.569081	-114.018081
658.713784	-112.753087
658.858550	-111.698393
659.003381	-110.804819
659.148274	-110.032046
659.293232	-109.346496
659.438253	-108.721044
659.583339	-108.135301
659.728488	-107.575749
659.873701	-107.035527
660.018978	-106.513602
660.164318	-106.013238
660.309723	-105.540188
660.455192	-105.101045
660.600725	-104.701760
660.746323	-104.346516
660.891984	-104.037281
661.037710	-103.773975
661.183500	-103.555058
661.329354	-103.378616
661.475272	-103.243745
661.621255	-103.151647
661.767303	-103.106248
661.913415	-103.114389
662.059591	-103.185460
662.205833	-103.330580
662.352138	-103.561758
662.498509	-103.891487
662.644944	-104.332989
662.791443	-104.901164
662.938008	-105.614196
663.084638	-106.495878
663.231332	-107.578555
663.378091	-108.905808
663.524915	-110.531720
663.671804	-112.502057
663.818759	-114.752543
663.965778	-116.737286
664.112863	-117.141344
664.260012	-115.741189
664.407227	-113.871768
664.554507	-112.269005
664.701853	-111.068290
664.849264	-110.245972
664.996740	-109.758254
665.144282	-109.570193
665.291889	-109.660525
665.439561	-110.022763
665.587300	-110.667543
665.735103	-111.628104
665.882973	-112.971449
666.030908	-114.820564
666.178909	-117.397612
666.326976	-121.050574
666.475109	-125.133364
666.623307	-123.540853
666.771571	-119.255972
666.919902	-116.048858
667.068298	-113.711932
667.216761	-111.918747
667.365289	-110.469548
667.513884	-109.242759
667.662545	-108.165517
667.811272	-107.198654
667.960065	-106.326542
668.108925	-105.548089
668.257851	-104.868755
668.406843	-104.294626
668.555902	-103.828964
668.705027	-103.470778
668.854219	-103.214691
669.003478	-103.051682
669.152803	-102.970264
669.302195	-102.957789
669.451653	-103.001884
669.601179	-103.092084
669.750771	-103.221495
669.900430	-103.388257
670.050156	-103.596565
670.199949	-103.856881
670.349808	-104.185440
670.499735	-104.603453
670.649729	-105.136104
670.799790	-105.811367
670.949918	-106.658230
671.100114	-107.702798
671.250377	-108.957737
671.400707	-110.392499
671.551104	-111.859284
671.701569	-112.981035
671.852101	-113.243022
672.002700	-112.545810
672.153368	-111.343732
672.304102	-110.077482
672.454905	-108.947042
672.605775	-108.008364
672.756713	-107.264323
672.907718	-106.704093
673.058791	-106.316292
673.209933	-106.092678
673.361142	-106.028958
673.512419	-106.124472
673.663764	-106.382131
673.815177	-106.809524
673.966658	-107.420933
674.118207	-108.240427
674.269825	-109.307068
674.421510	-110.683873
674.573264	-112.472933
674.725086	-114.838682
674.876977	-118.006069
675.028936	-121.730352
675.180963	-122.375720
675.333059	-119.049750
675.485224	-115.976158
675.637457	-113.743687
675.789758	-112.128398
675.942129	-110.938209
676.094568	-110.038602
676.247075	-109.328722
676.399652	-108.728366
676.552298	-108.174170
676.705012	-107.621154
676.857795	-107.045268
677.010648	-106.442320
677.163569	-105.823382
677.316560	-105.209101
677.469619	-104.624759
677.622748	-104.096885
677.775946	-103.651317
677.929214	-103.312477
678.082551	-103.103554
678.235957	-103.047110
678.389432	-103.166002
678.542977	-103.485156
678.696592	-104.034600
678.850276	-104.854445
679.004030	-106.004160
679.157853	-107.581945
679.311746	-109.770603
679.465709	-112.972390
679.619742	-118.380010
679.773844	-132.512421
679.928017	-120.274960
680.082259	-113.979537
680.236571	-110.466333
680.390954	-108.100748
680.545406	-106.386393
680.699929	-105.111655
680.854522	-104.170591
681.009185	-103.505251
681.163918	-103.081797
681.318722	-102.878508
681.473596	-102.878793
681.628540	-103.066454
681.783555	-103.421986
681.938641	-103.920270
682.093797	-104.531100
682.249023	-105.224423
682.404321	-105.980994
682.559689	-106.805803
682.715128	-107.738801
682.870637	-108.857564
683.026218	-110.272076
683.181869	-112.108824
683.337591	-114.413353
683.493385	-116.589280
683.649249	-116.507902
683.805185	-114.014858
683.961191	-111.287346
684.117269	-109.026950
684.273418	-107.225177
684.429639	-105.786494
684.585930	-104.636132
684.742294	-103.728032
684.898728	-103.039103
685.055234	-102.562750
685.211812	-102.303570
685.368461	-102.273897
685.525182	-102.492169
685.681975	-102.983171
685.838839	-103.780479
685.995775	-104.931793
686.152783	-106.507680
686.309863	-108.612807
686.467014	-111.375575
686.624238	-114.687178
686.781534	-116.688051
686.938902	-114.942583
687.096342	-112.184509
687.253854	-109.969842
687.411438	-108.324176
687.569095	-107.099594
687.726824	-106.180466
687.884626	-105.488046
688.042499	-104.968621
688.200446	-104.583439
688.358465	-104.301405
688.516556	-104.094686
688.674720	-103.936839
688.832957	-103.802776
688.991266	-103.670684
689.149649	-103.525782
689.308104	-103.363879
689.466632	-103.192913
689.625233	-103.032324
689.783906	-102.910478
689.942653	-102.861336
690.101473	-102.922388
690.260367	-103.134796
690.419333	-103.546041
690.578372	-104.216173
690.737485	-105.230349
690.896672	-106.726167
691.055931	-108.963919
691.215264	-112.559631
691.374671	-119.738748
691.534151	-124.935562
691.693704	-113.921872
691.853332	-109.024688
692.013033	-105.940194
692.172807	-103.747144
692.332656	-102.099809
692.492578	-100.829630
692.652575	-99.841802
692.812645	-99.078804
692.972789	-98.504735
693.133007	-98.097488
693.293300	-97.844218
693.453666	-97.737920
693.614107	-97.774053
693.774622	-97.947041
693.935211	-98.246344
694.095875	-98.651739
694.256613	-99.128375
694.417426	-99.624199
694.578313	-100.075025
694.739274	-100.422375
694.900311	-100.639663
695.061421	-100.748375
695.222607	-100.809876
695.383868	-100.900799
695.545203	-101.091181
695.706613	-101.435254
695.868098	-101.972393
696.029658	-102.731913
696.191293	-103.738357
696.353003	-105.016712
696.514789	-106.596622
696.676649	-108.508800
696.838585	-110.740429
697.000596	-113.021295
697.162682	-114.319716
697.324844	-113.555545
697.487081	-111.633589
697.649394	-109.725767
697.811782	-108.192835
697.974246	-107.074566
698.136786	-106.347457
698.299401	-105.984384
698.462092	-105.962652
698.624859	-106.259773
698.787702	-106.844541
698.950621	-107.663109
699.113616	-108.619351
699.276686	-109.558988
699.439833	-110.289442
699.603056	-110.663045
699.766355	-110.659825
699.929731	-110.360341
700.093183	-109.853224
700.256711	-109.195780
700.420315	-108.432981
700.583996	-107.619017
700.747754	-106.816510
700.911588	-106.082900
701.075499	-105.459274
701.239486	-104.967674
701.403550	-104.614043
701.567691	-104.391805
701.731909	-104.283916
701.896203	-104.263492
702.060575	-104.293569
702.225024	-104.328523
702.389549	-104.320463
702.554152	-104.231417
702.718832	-104.046992
702.883589	-103.783299
703.048424	-103.482232
703.213335	-103.198857
703.378324	-102.989700
703.543391	-102.907194
703.708535	-102.999967
703.873757	-103.317108
704.039056	-103.915443
704.204433	-104.870795
704.369887	-106.297803
704.535420	-108.391150
704.701030	-111.517853
704.866718	-116.279407
705.032484	-119.551453
705.198328	-114.804176
705.364250	-110.867399
705.530250	-108.417257
705.696328	-106.913490
705.862485	-106.065095
706.028720	-105.692509
706.195033	-105.628163
706.361424	-105.644647
706.527894	-105.437719
706.694442	-104.762147
706.861069	-103.637019
707.027775	-102.297823
707.194559	-100.972411
707.361422	-99.784771
707.528363	-98.779208
707.695384	-97.961787
707.862483	-97.327064
708.029661	-96.872378
708.196918	-96.605144
708.364254	-96.546804
708.531670	-96.735419
708.699164	-97.229191
708.866738	-98.115236
709.034391	-99.530689
709.202123	-101.710117
709.369935	-105.062496
709.537826	-109.547488
709.705796	-108.768038
709.873847	-104.044456
710.041976	-100.654452
710.210186	-98.383028
710.378475	-96.859380
710.546844	-95.878745
710.715292	-95.324607
710.883821	-95.125554
711.052429	-95.234781
711.221118	-95.619420
711.389887	-96.253885
711.558735	-97.113090
711.727664	-98.160297
711.896673	-99.321757
712.065763	-100.443352
712.234932	-101.263056
712.404183	-101.515262
712.573513	-101.175155
712.742924	-100.497005
712.912416	-99.777293
713.081988	-99.207760
713.251641	-98.886443
713.421375	-98.864421
713.591190	-99.178556
713.761085	-99.871663
713.931061	-101.010214
714.101119	-102.711379
714.271257	-105.203815
714.441476	-109.007536
714.611777	-115.597925
714.782159	-120.419938
714.952622	-112.621352
715.123166	-108.637037
715.293792	-106.496258
715.464499	-105.391570
715.635288	-105.019137
715.806158	-105.252568
715.977110	-106.048183
716.148143	-107.409681
716.319259	-109.357018
716.490456	-111.816398
716.661735	-114.189873
716.833096	-114.943437
717.004538	-113.853591
717.176063	-112.455552
717.347670	-111.482613
717.519359	-111.032630
717.691130	-111.065007
717.862984	-111.520016
718.034920	-112.285721
718.206938	-113.044616
718.379039	-113.122637
718.551222	-112.031031
718.723488	-110.239315
718.895836	-108.466180
719.068267	-107.064917
719.240781	-106.149998
719.413377	-105.760039
719.586057	-105.919051
719.758819	-106.632648
719.931664	-107.780712
720.104593	-108.750191
720.277604	-108.276342
720.450699	-106.254442
720.623876	-103.919095
720.797137	-101.924385
720.970482	-100.386597
721.143910	-99.276981
721.317421	-98.548788
721.491016	-98.164438
721.664694	-98.098539
721.838456	-98.335246
722.012302	-98.862765
722.186231	-99.662169
722.360244	-100.682597
722.534342	-101.790698
722.708523	-102.707402
722.882788	-103.061383
723.057137	-102.699972
723.231570	-101.863121
