# 2022-03-22_00.41.09
# shape = sech2
# FWHM_ps = 0.1
# carrier_nm = 1542
# frep_MHz = 12126
# pow_mW = 8000
# GDD = 0.0
# propa_len = 0.13933333333333334
# untap_len = 0.01
# taper_len = 0.07933333333333334
# waist_len = 0.02
# uptap_len = 0.02
# untap_scale = 1.0
# waist_scale = 0.3526315789473685
# workingDir = NL_20110305_12 (Spirou)
# axis = slow
# window_ps = 10.0
# steps = 200
# points = 21700
# 
# wavelength [nm]	 power spectral density [dB]
600.043425	-134.594954
600.163550	-133.857689
600.283723	-133.247470
600.403943	-132.753647
600.524212	-132.367744
600.644529	-132.082533
600.764895	-131.893045
600.885308	-131.797232
601.005770	-131.796289
601.126280	-131.894553
601.246839	-132.098740
601.367446	-132.416840
601.488101	-132.856792
601.608804	-133.424988
601.729557	-134.124800
601.850357	-134.954914
601.971206	-135.908072
602.092104	-136.971258
602.213050	-138.128274
602.334045	-139.366766
602.455089	-140.690062
602.576181	-142.129690
602.697322	-143.750425
602.818511	-145.632994
602.939749	-147.782846
603.061036	-149.790222
603.182372	-150.385263
603.303757	-149.047073
603.425191	-147.107488
603.546673	-145.444661
603.668204	-144.234254
603.789785	-143.448024
603.911414	-143.018685
604.033092	-142.865840
604.154820	-142.888921
604.276596	-142.957483
604.398422	-142.919561
604.520297	-142.646800
604.642220	-142.097917
604.764193	-141.333984
604.886216	-140.465978
605.008287	-139.595890
605.130408	-138.793338
605.252578	-138.098008
605.374798	-137.528163
605.497066	-137.086767
605.619385	-136.763563
605.741752	-136.535092
605.864169	-136.365366
605.986636	-136.210620
606.109152	-136.031294
606.231718	-135.807616
606.354333	-135.551153
606.476998	-135.304028
606.599712	-135.126079
606.722476	-135.080460
606.845290	-135.225789
606.968154	-135.615687
607.091067	-136.302709
607.214030	-137.345716
607.337043	-138.822099
607.460106	-140.850457
607.583219	-143.642371
607.706381	-147.655176
607.829594	-154.171652
607.952856	-161.461955
608.076169	-153.460907
608.199531	-148.964556
608.322944	-146.105120
608.446407	-143.880628
608.569920	-141.972428
608.693483	-140.311416
608.817096	-138.908154
608.940759	-137.779247
609.064473	-136.924761
609.188237	-136.325506
609.312051	-135.943255
609.435916	-135.720494
609.559831	-135.583508
609.683796	-135.454342
609.807812	-135.274597
609.931878	-135.030309
610.055995	-134.756695
610.180162	-134.518101
610.304380	-134.381109
610.428648	-134.398202
610.552967	-134.603141
610.677337	-135.012452
610.801757	-135.627980
610.926228	-136.438053
611.050750	-137.417131
611.175323	-138.523495
611.299946	-139.693057
611.424620	-140.825178
611.549345	-141.759293
611.674121	-142.273708
611.798948	-142.185544
611.923826	-141.519936
612.048755	-140.507577
612.173734	-139.402525
612.298765	-138.368406
612.423847	-137.479993
612.548980	-136.756827
612.674165	-136.188281
612.799400	-135.747776
612.924687	-135.401005
613.050025	-135.112431
613.175414	-134.852334
613.300854	-134.603154
613.426346	-134.363188
613.551889	-134.145763
613.677484	-133.974790
613.803130	-133.879244
613.928827	-133.887882
614.054576	-134.024898
614.180377	-134.305935
614.306229	-134.733047
614.432132	-135.287178
614.558087	-135.916430
614.684094	-136.523922
614.810153	-136.972452
614.936263	-137.129962
615.062425	-136.943624
615.188639	-136.468137
615.314904	-135.813821
615.441222	-135.081921
615.567591	-134.342044
615.694012	-133.640043
615.820486	-133.010671
615.947011	-132.484828
616.073588	-132.090798
616.200217	-131.852667
616.326898	-131.788975
616.453632	-131.911588
616.580417	-132.224270
616.707255	-132.721070
616.834144	-133.383862
616.961086	-134.178718
617.088081	-135.052185
617.215127	-135.931483
617.342226	-136.736517
617.469378	-137.408365
617.596581	-137.943396
617.723837	-138.408093
617.851146	-138.923604
617.978507	-139.640405
618.105920	-140.729392
618.233386	-142.395602
618.360905	-144.875832
618.488476	-148.008605
618.616100	-148.741433
618.743777	-145.526690
618.871506	-142.377283
618.999288	-140.158559
619.127123	-138.693112
619.255011	-137.777111
619.382951	-137.225588
619.510945	-136.837292
619.638991	-136.396329
619.767090	-135.745154
619.895243	-134.874351
620.023448	-133.906385
620.151706	-132.989869
620.280017	-132.228336
620.408382	-131.671564
620.536799	-131.330438
620.665270	-131.190542
620.793794	-131.218391
620.922371	-131.362209
621.051002	-131.551256
621.179686	-131.700634
621.308423	-131.729160
621.437213	-131.589028
621.566057	-131.289021
621.694954	-130.889001
621.823905	-130.470179
621.952909	-130.106065
622.081967	-129.847786
622.211079	-129.719895
622.340244	-129.719822
622.469462	-129.818020
622.598735	-129.961182
622.728061	-130.085880
622.857441	-130.146239
622.986874	-130.143719
623.116361	-130.135937
623.245903	-130.217279
623.375498	-130.491156
623.505147	-131.053543
623.634850	-131.985663
623.764606	-133.329536
623.894417	-134.963631
624.024282	-136.214897
624.154201	-135.847384
624.284174	-133.963983
624.414202	-131.774794
624.544283	-129.835472
624.674419	-128.214541
624.804609	-126.856516
624.934853	-125.696799
625.065151	-124.689503
625.195504	-123.811759
625.325911	-123.059801
625.456373	-122.441598
625.586889	-121.969488
625.717460	-121.654475
625.848085	-121.502528
625.978764	-121.512373
626.109498	-121.674126
626.240287	-121.968447
626.371131	-122.366589
626.502029	-122.832806
626.632982	-123.330001
626.763989	-123.827501
626.895052	-124.306907
627.026169	-124.760345
627.157341	-125.180027
627.288568	-125.544889
627.419850	-125.815543
627.551187	-125.947551
627.682579	-125.920894
627.814026	-125.763376
627.945528	-125.543972
628.077085	-125.342627
628.208697	-125.222256
628.340364	-125.215443
628.472087	-125.321983
628.603865	-125.511789
628.735698	-125.733192
628.867586	-125.930511
628.999530	-126.069342
629.131529	-126.155316
629.263584	-126.230217
629.395694	-126.347159
629.527859	-126.541072
629.660080	-126.804576
629.792357	-127.071476
629.924689	-127.218712
630.057077	-127.112291
630.189520	-126.692981
630.322019	-126.019168
630.454574	-125.212282
630.587184	-124.376593
630.719851	-123.566360
630.852573	-122.794840
630.985351	-122.056534
631.118185	-121.346591
631.251075	-120.671658
631.384021	-120.051405
631.517023	-119.513229
631.650081	-119.085048
631.783195	-118.790044
631.916365	-118.644101
632.049592	-118.655175
632.182874	-118.823563
632.316213	-119.142602
632.449608	-119.599836
632.583059	-120.179162
632.716567	-120.864511
632.850131	-121.645477
632.983751	-122.523878
633.117428	-123.519361
633.251161	-124.672665
633.384951	-126.047761
633.518797	-127.737879
633.652700	-129.885980
633.786660	-132.748780
633.920676	-136.923946
634.054749	-144.654104
634.188879	-153.351227
634.323065	-140.445168
634.457308	-135.671822
634.591608	-132.731207
634.725965	-130.616464
634.860379	-128.990611
634.994850	-127.716621
635.129377	-126.735066
635.263962	-126.018390
635.398604	-125.551648
635.533303	-125.324404
635.668058	-125.327721
635.802872	-125.553675
635.937742	-125.996671
636.072669	-126.656281
636.207654	-127.542190
636.342696	-128.682066
636.477796	-130.134036
636.612953	-132.008697
636.748167	-134.511490
636.883439	-138.007700
637.018768	-142.576402
637.154155	-142.843631
637.289599	-138.319388
637.425101	-134.803329
637.560660	-132.332961
637.696277	-130.533272
637.831952	-129.181148
637.967685	-128.140382
638.103475	-127.318847
638.239324	-126.649232
638.375230	-126.081159
638.511194	-125.579097
638.647215	-125.122321
638.783295	-124.704133
638.919433	-124.329362
639.055629	-124.010373
639.191883	-123.762213
639.328195	-123.598064
639.464565	-123.526065
639.600994	-123.547449
639.737481	-123.656463
639.874025	-123.842588
640.010629	-124.094766
640.147290	-124.407126
640.284010	-124.783333
640.420789	-125.234871
640.557625	-125.769459
640.694521	-126.365094
640.831474	-126.927108
640.968487	-127.250210
641.105558	-127.076367
641.242687	-126.307461
641.379876	-125.117707
641.517123	-123.775152
641.654429	-122.463882
641.791793	-121.265203
641.929216	-120.199773
642.066699	-119.262782
642.204240	-118.443374
642.341840	-117.733354
642.479499	-117.129729
642.617217	-116.633992
642.754994	-116.249912
642.892830	-115.981174
643.030726	-115.829657
643.168680	-115.794620
643.306694	-115.872736
643.444767	-116.058812
643.582899	-116.347037
643.721091	-116.732436
643.859342	-117.212218
643.997652	-117.786585
644.136022	-118.458742
644.274451	-119.234050
644.412940	-120.118036
644.551488	-121.113494
644.690096	-122.216446
644.828763	-123.409733
644.967490	-124.652167
645.106277	-125.860891
645.245124	-126.890602
645.384030	-127.538254
645.522997	-127.628148
645.662023	-127.149273
645.801109	-126.272085
645.940255	-125.217280
646.079460	-124.151134
646.218726	-123.169917
646.358052	-122.321503
646.497438	-121.626872
646.636884	-121.094240
646.776391	-120.728057
646.915957	-120.535345
647.055584	-120.530712
647.195271	-120.740660
647.335019	-121.208395
647.474826	-122.001134
647.614695	-123.223829
647.754623	-125.048315
647.894612	-127.765392
648.034662	-131.664349
648.174772	-133.940210
648.314943	-129.991097
648.455174	-125.979182
648.595466	-123.096928
648.735819	-120.981229
648.876233	-119.375906
649.016707	-118.132223
649.157242	-117.162396
649.297838	-116.414869
649.438495	-115.860734
649.579213	-115.485096
649.719992	-115.280785
649.860832	-115.243507
650.001733	-115.368108
650.142695	-115.645769
650.283718	-116.061888
650.424803	-116.594516
650.565949	-117.213313
650.707156	-117.879297
650.848424	-118.546190
650.989754	-119.164603
651.131145	-119.690424
651.272597	-120.096898
651.414111	-120.385586
651.555687	-120.588887
651.697324	-120.760973
651.839022	-120.962117
651.980782	-121.244951
652.122604	-121.646874
652.264488	-122.187773
652.406433	-122.871055
652.548441	-123.686492
652.690510	-124.613608
652.832640	-125.623452
652.974833	-126.674482
653.117088	-127.697778
653.259405	-128.575011
653.401784	-129.139126
653.544224	-129.248476
653.686727	-128.901557
653.829293	-128.242511
653.971920	-127.445394
654.114609	-126.628833
654.257361	-125.849786
654.400175	-125.126186
654.543052	-124.454661
654.685991	-123.817694
654.828992	-123.186162
654.972056	-122.525322
655.115183	-121.807457
655.258372	-121.026623
655.401623	-120.205427
655.544937	-119.387618
655.688314	-118.622502
655.831754	-117.951684
655.975256	-117.402695
656.118822	-116.988087
656.262450	-116.706822
656.406141	-116.545679
656.549894	-116.480012
656.693711	-116.474019
656.837591	-116.481569
656.981534	-116.449477
657.125540	-116.325117
657.269610	-116.068298
657.413742	-115.663038
657.557938	-115.122320
657.702196	-114.482404
657.846519	-113.790652
657.990904	-113.093802
658.135353	-112.430849
658.279866	-111.830742
658.424441	-111.313086
658.569081	-110.890147
658.713784	-110.569135
658.858550	-110.354420
659.003381	-110.249449
659.148274	-110.258178
659.293232	-110.386056
659.438253	-110.640675
659.583339	-111.032374
659.728488	-111.575234
659.873701	-112.289037
660.018978	-113.202258
660.164318	-114.355329
660.309723	-115.799657
660.455192	-117.570776
660.600725	-119.546057
660.746323	-120.989414
660.891984	-120.577548
661.037710	-118.609942
661.183500	-116.437629
661.329354	-114.613435
661.475272	-113.211823
661.621255	-112.196149
661.767303	-111.516247
661.913415	-111.125985
662.059591	-110.984468
662.205833	-111.055816
662.352138	-111.311062
662.498509	-111.732498
662.644944	-112.319042
662.791443	-113.089537
662.938008	-114.080372
663.084638	-115.332318
663.231332	-116.851268
663.378091	-118.496425
663.524915	-119.760891
663.671804	-119.883625
663.818759	-118.867933
663.965778	-117.478474
664.112863	-116.223093
664.260012	-115.242208
664.407227	-114.527165
664.554507	-114.030898
664.701853	-113.706735
664.849264	-113.521685
664.996740	-113.458398
665.144282	-113.509463
665.291889	-113.666735
665.439561	-113.910164
665.587300	-114.202172
665.735103	-114.494389
665.882973	-114.749971
666.030908	-114.971883
666.178909	-115.214991
666.326976	-115.570335
666.475109	-116.135042
666.623307	-116.981543
666.771571	-118.110525
666.919902	-119.335752
667.068298	-120.110471
667.216761	-119.794463
667.365289	-118.539348
667.513884	-117.025939
667.662545	-115.655580
667.811272	-114.526889
667.960065	-113.618888
668.108925	-112.885342
668.257851	-112.292199
668.406843	-111.830587
668.555902	-111.516342
668.705027	-111.382555
668.854219	-111.471885
669.003478	-111.833543
669.152803	-112.527064
669.302195	-113.635277
669.451653	-115.294761
669.601179	-117.774251
669.750771	-121.734065
669.900430	-129.480282
670.050156	-130.635294
670.199949	-122.115381
670.349808	-117.815014
670.499735	-115.080831
670.649729	-113.172277
670.799790	-111.795344
670.949918	-110.804187
671.100114	-110.112926
671.250377	-109.661187
671.400707	-109.398332
671.551104	-109.277019
671.701569	-109.253998
671.852101	-109.296912
672.002700	-109.393268
672.153368	-109.555222
672.304102	-109.815634
672.454905	-110.216826
672.605775	-110.797115
672.756713	-111.577588
672.907718	-112.546792
673.058791	-113.638122
673.209933	-114.700094
673.361142	-115.488204
673.512419	-115.750440
673.663764	-115.401933
673.815177	-114.582335
673.966658	-113.521835
674.118207	-112.416350
674.269825	-111.398138
674.421510	-110.547498
674.573264	-109.907782
674.725086	-109.496488
674.876977	-109.312907
675.028936	-109.343214
675.180963	-109.564082
675.333059	-109.946043
675.485224	-110.457962
675.637457	-111.073422
675.789758	-111.778414
675.942129	-112.578303
676.094568	-113.501330
676.247075	-114.596991
676.399652	-115.930480
676.552298	-117.575304
676.705012	-119.603595
676.857795	-122.069556
677.010648	-124.980067
677.163569	-128.281985
677.316560	-132.059057
677.469619	-137.479406
677.622748	-155.386838
677.775946	-137.155415
677.929214	-130.085486
678.082551	-125.731464
678.235957	-122.422552
678.389432	-119.628808
678.542977	-117.159810
678.696592	-114.972382
678.850276	-113.070786
679.004030	-111.454710
679.157853	-110.102308
679.311746	-108.971440
679.465709	-108.009553
679.619742	-107.168657
679.773844	-106.420824
679.928017	-105.766266
680.082259	-105.229021
680.236571	-104.843928
680.390954	-104.643364
680.545406	-104.649259
680.699929	-104.870776
680.854522	-105.306355
681.009185	-105.949425
681.163918	-106.797839
681.318722	-107.866525
681.473596	-109.201254
681.628540	-110.891849
681.783555	-113.087536
681.938641	-116.020702
682.093797	-119.980828
682.249023	-124.257831
682.404321	-123.934638
682.559689	-120.987661
682.715128	-118.891470
682.870637	-117.550283
683.026218	-116.526123
683.181869	-115.498966
683.337591	-114.357902
683.493385	-113.170057
683.649249	-112.047551
683.805185	-111.056903
683.961191	-110.208350
684.117269	-109.477767
684.273418	-108.830158
684.429639	-108.236882
684.585930	-107.685554
684.742294	-107.182715
684.898728	-106.750768
685.055234	-106.421934
685.211812	-106.232354
685.368461	-106.218262
685.525182	-106.414876
685.681975	-106.857780
685.838839	-107.586590
685.995775	-108.651315
686.152783	-110.122862
686.309863	-112.111385
686.467014	-114.801944
686.624238	-118.522514
686.781534	-123.689909
686.938902	-127.460524
687.096342	-124.480004
687.253854	-121.771259
687.411438	-120.300324
687.569095	-119.337628
687.726824	-118.201161
687.884626	-116.600836
688.042499	-114.761518
688.200446	-113.012205
688.358465	-111.521325
688.516556	-110.328221
688.674720	-109.419947
688.832957	-108.774001
688.991266	-108.375830
689.149649	-108.222893
689.308104	-108.321016
689.466632	-108.675739
689.625233	-109.278480
689.783906	-110.083463
689.942653	-110.971872
690.101473	-111.722080
690.260367	-112.065863
690.419333	-111.882721
690.578372	-111.309005
690.737485	-110.583068
690.896672	-109.877967
691.055931	-109.277934
691.215264	-108.817037
691.374671	-108.513774
691.534151	-108.390606
691.693704	-108.483607
691.853332	-108.848293
692.013033	-109.567758
692.172807	-110.772501
692.332656	-112.695190
692.492578	-115.847787
692.652575	-121.814778
692.812645	-129.310904
692.972789	-118.493080
693.133007	-113.174764
693.293300	-109.832455
693.453666	-107.441884
693.614107	-105.636824
693.774622	-104.253485
693.935211	-103.207564
694.095875	-102.446797
694.256613	-101.927783
694.417426	-101.603811
694.578313	-101.420906
694.739274	-101.323249
694.900311	-101.267727
695.061421	-101.240458
695.222607	-101.262388
695.383868	-101.377686
695.545203	-101.632625
695.706613	-102.056284
695.868098	-102.647798
696.029658	-103.370699
696.191293	-104.158160
696.353003	-104.935978
696.514789	-105.656450
696.676649	-106.307307
696.838585	-106.863795
697.000596	-107.213399
697.162682	-107.162423
697.324844	-106.615007
697.487081	-105.726377
697.649394	-104.775538
697.811782	-103.974900
697.974246	-103.427398
698.136786	-103.160848
698.299401	-103.161148
698.462092	-103.389480
698.624859	-103.788539
698.787702	-104.282532
698.950621	-104.773765
699.113616	-105.142220
699.276686	-105.265613
699.439833	-105.073538
699.603056	-104.599784
699.766355	-103.967521
699.929731	-103.319179
700.093183	-102.762308
700.256711	-102.356565
700.420315	-102.122515
700.583996	-102.054696
700.747754	-102.133632
700.911588	-102.336949
701.075499	-102.649218
701.239486	-103.068141
701.403550	-103.604305
701.567691	-104.274095
701.731909	-105.088358
701.896203	-106.040888
702.060575	-107.100835
702.225024	-108.214225
702.389549	-109.316605
702.554152	-110.340203
702.718832	-111.176247
702.883589	-111.591001
703.048424	-111.268274
703.213335	-110.152051
703.378324	-108.589203
703.543391	-106.976345
703.708535	-105.533750
703.873757	-104.340229
704.039056	-103.406979
704.204433	-102.719036
704.369887	-102.253556
704.535420	-101.987733
704.701030	-101.902941
704.866718	-101.987681
705.032484	-102.239784
705.198328	-102.667648
705.364250	-103.290350
705.530250	-104.136898
705.696328	-105.244648
705.862485	-106.656168
706.028720	-108.410866
706.195033	-110.516975
706.361424	-112.860116
706.527894	-114.979552
706.694442	-115.999480
706.861069	-115.598342
707.027775	-114.447134
707.194559	-113.106359
707.361422	-111.766412
707.528363	-110.500306
707.695384	-109.368076
707.862483	-108.417025
708.029661	-107.671504
708.196918	-107.136708
708.364254	-106.811106
708.531670	-106.699115
708.699164	-106.818774
708.866738	-107.202542
709.034391	-107.891455
709.202123	-108.921750
709.369935	-110.291664
709.537826	-111.864993
709.705796	-113.159665
709.873847	-113.370740
710.041976	-112.354481
710.210186	-110.864037
710.378475	-109.492888
710.546844	-108.456580
710.715292	-107.802411
710.883821	-107.505660
711.052429	-107.464246
711.221118	-107.452846
711.389887	-107.144330
711.558735	-106.342066
711.727664	-105.195568
711.896673	-104.022069
712.065763	-103.048656
712.234932	-102.366454
712.404183	-101.977596
712.573513	-101.833903
712.742924	-101.860291
712.912416	-101.978617
713.081988	-102.138131
713.251641	-102.338627
713.421375	-102.626967
713.591190	-103.069693
713.761085	-103.723033
713.931061	-104.612612
714.101119	-105.718954
714.271257	-106.963619
714.441476	-108.207530
714.611777	-109.297993
714.782159	-110.173512
714.952622	-110.926454
715.123166	-111.738349
715.293792	-112.773065
715.464499	-114.111921
715.635288	-115.682174
715.806158	-117.071919
715.977110	-117.421371
716.148143	-116.301991
716.319259	-114.401576
716.490456	-112.451190
716.661735	-110.769464
716.833096	-109.467046
717.004538	-108.573976
717.176063	-108.066678
717.347670	-107.853076
717.519359	-107.748010
717.691130	-107.504760
717.862984	-106.971127
718.034920	-106.228161
718.206938	-105.490823
718.379039	-104.921491
718.551222	-104.559642
718.723488	-104.337271
718.895836	-104.129704
719.068267	-103.840979
719.240781	-103.481584
719.413377	-103.160444
719.586057	-103.008174
719.758819	-103.117879
719.931664	-103.530414
720.104593	-104.239713
720.277604	-105.201630
720.450699	-106.350753
720.623876	-107.636942
720.797137	-109.078584
720.970482	-110.804786
721.143910	-113.074124
721.317421	-116.306181
721.491016	-120.848234
721.664694	-122.250723
721.838456	-117.663411
722.012302	-113.899073
722.186231	-111.229592
722.360244	-109.217616
722.534342	-107.622812
722.708523	-106.331426
