# 2022-03-22_01.05.47
# shape = sech2
# FWHM_ps = 0.1
# carrier_nm = 1542
# frep_MHz = 12126
# pow_mW = 8000
# GDD = 0.0
# propa_len = 0.14622222222222223
# untap_len = 0.01
# taper_len = 0.08622222222222223
# waist_len = 0.02
# uptap_len = 0.02
# untap_scale = 1.0
# waist_scale = 0.2578947368421053
# workingDir = NL_20110305_12 (Spirou)
# axis = slow
# window_ps = 10.0
# steps = 200
# points = 21700
# 
# wavelength [nm]	 power spectral density [dB]
600.043425	-79.441301
600.163550	-79.375847
600.283723	-79.266440
600.403943	-79.118071
600.524212	-78.945281
600.644529	-78.767746
600.764895	-78.603173
600.885308	-78.465529
601.005770	-78.364378
601.126280	-78.304110
601.246839	-78.282982
601.367446	-78.293427
601.488101	-78.323789
601.608804	-78.358131
601.729557	-78.378527
601.850357	-78.369483
601.971206	-78.321943
602.092104	-78.235937
602.213050	-78.117827
602.334045	-77.980082
602.455089	-77.837366
602.576181	-77.704326
602.697322	-77.591416
602.818511	-77.505626
602.939749	-77.449681
603.061036	-77.421578
603.182372	-77.415428
603.303757	-77.423422
603.425191	-77.435385
603.546673	-77.439633
603.668204	-77.426567
603.789785	-77.390493
603.911414	-77.328302
604.033092	-77.239756
604.154820	-77.130107
604.276596	-77.006972
604.398422	-76.878070
604.520297	-76.752426
604.642220	-76.639914
604.764193	-76.547141
604.886216	-76.477289
605.008287	-76.432903
605.130408	-76.413574
605.252578	-76.415963
605.374798	-76.434207
605.497066	-76.460358
605.619385	-76.483763
605.741752	-76.494343
605.864169	-76.483582
605.986636	-76.445653
606.109152	-76.378873
606.231718	-76.288320
606.354333	-76.182046
606.476998	-76.070196
606.599712	-75.963222
606.722476	-75.871486
606.845290	-75.801109
606.968154	-75.754503
607.091067	-75.731237
607.214030	-75.727446
607.337043	-75.735982
607.460106	-75.748417
607.583219	-75.755753
607.706381	-75.747998
607.829594	-75.717964
607.952856	-75.662329
608.076169	-75.581562
608.199531	-75.480455
608.322944	-75.368474
608.446407	-75.255238
608.569920	-75.148436
608.693483	-75.055151
608.817096	-74.981323
608.940759	-74.929268
609.064473	-74.898313
609.188237	-74.887669
609.312051	-74.894438
609.435916	-74.913055
609.559831	-74.937968
609.683796	-74.963735
609.807812	-74.985352
609.931878	-74.998701
610.055995	-75.001889
610.180162	-74.992246
610.304380	-74.968162
610.428648	-74.931065
610.552967	-74.883794
610.677337	-74.828313
610.801757	-74.768578
610.926228	-74.709831
611.050750	-74.655914
611.175323	-74.608565
611.299946	-74.570011
611.424620	-74.540986
611.549345	-74.519749
611.674121	-74.503034
611.798948	-74.486429
611.923826	-74.464817
612.048755	-74.432860
612.173734	-74.387327
612.298765	-74.326621
612.423847	-74.252785
612.548980	-74.169944
612.674165	-74.083376
612.799400	-73.999250
612.924687	-73.923612
613.050025	-73.861523
613.175414	-73.816709
613.300854	-73.792110
613.426346	-73.788528
613.551889	-73.805262
613.677484	-73.839664
613.803130	-73.887640
613.928827	-73.943722
614.054576	-74.001805
614.180377	-74.056626
614.306229	-74.103710
614.432132	-74.138001
614.558087	-74.156611
614.684094	-74.159116
614.810153	-74.145915
614.936263	-74.117439
615.062425	-74.075952
615.188639	-74.024378
615.314904	-73.964609
615.441222	-73.899046
615.567591	-73.830628
615.694012	-73.762262
615.820486	-73.696332
615.947011	-73.635604
616.073588	-73.581333
616.200217	-73.533831
616.326898	-73.492433
616.453632	-73.457136
616.580417	-73.427722
616.707255	-73.403105
616.834144	-73.381715
616.961086	-73.361902
617.088081	-73.342829
617.215127	-73.325715
617.342226	-73.312858
617.469378	-73.306565
617.596581	-73.308658
617.723837	-73.320900
617.851146	-73.344719
617.978507	-73.380839
618.105920	-73.429418
618.233386	-73.488618
618.360905	-73.554760
618.488476	-73.623292
618.616100	-73.688877
618.743777	-73.745719
618.871506	-73.789838
618.999288	-73.818537
619.127123	-73.829577
619.255011	-73.822498
619.382951	-73.798298
619.510945	-73.758681
619.638991	-73.706010
619.767090	-73.643566
619.895243	-73.574441
620.023448	-73.502034
620.151706	-73.429405
620.280017	-73.359409
620.408382	-73.295424
620.536799	-73.240115
620.665270	-73.195306
620.793794	-73.163566
620.922371	-73.146544
621.051002	-73.144729
621.179686	-73.158522
621.308423	-73.188338
621.437213	-73.233206
621.566057	-73.290682
621.694954	-73.359045
621.823905	-73.435496
621.952909	-73.516699
622.081967	-73.598319
622.211079	-73.676606
622.340244	-73.747876
622.469462	-73.809571
622.598735	-73.861009
622.728061	-73.902147
622.857441	-73.932017
622.986874	-73.949962
623.116361	-73.955579
623.245903	-73.948625
623.375498	-73.928389
623.505147	-73.894938
623.634850	-73.849979
623.764606	-73.796232
623.894417	-73.737286
624.024282	-73.676588
624.154201	-73.618630
624.284174	-73.567209
624.414202	-73.525426
624.544283	-73.495535
624.674419	-73.479341
624.804609	-73.477207
624.934853	-73.488801
625.065151	-73.512774
625.195504	-73.546900
625.325911	-73.588802
625.456373	-73.635817
625.586889	-73.684657
625.717460	-73.732374
625.848085	-73.777515
625.978764	-73.819832
626.109498	-73.859534
626.240287	-73.896124
626.371131	-73.928657
626.502029	-73.956738
626.632982	-73.980761
626.763989	-74.001070
626.895052	-74.017479
627.026169	-74.028328
627.157341	-74.033290
627.288568	-74.032660
627.419850	-74.026810
627.551187	-74.016838
627.682579	-74.004822
627.814026	-73.990453
627.945528	-73.973858
628.077085	-73.955801
628.208697	-73.937206
628.340364	-73.917268
628.472087	-73.893918
628.603865	-73.866564
628.735698	-73.836669
628.867586	-73.805875
628.999530	-73.776230
629.131529	-73.750327
629.263584	-73.730306
629.395694	-73.717806
629.527859	-73.714797
629.660080	-73.723115
629.792357	-73.745123
629.924689	-73.781999
630.057077	-73.833765
630.189520	-73.899815
630.322019	-73.977161
630.454574	-74.060391
630.587184	-74.143489
630.719851	-74.220609
630.852573	-74.285766
630.985351	-74.334215
631.118185	-74.362098
631.251075	-74.366746
631.384021	-74.346948
631.517023	-74.304108
631.650081	-74.241579
631.783195	-74.163530
631.916365	-74.074167
632.049592	-73.977815
632.182874	-73.877655
632.316213	-73.778504
632.449608	-73.686056
632.583059	-73.604368
632.716567	-73.536538
632.850131	-73.486044
632.983751	-73.456092
633.117428	-73.448668
633.251161	-73.464475
633.384951	-73.503025
633.518797	-73.562216
633.652700	-73.637468
633.786660	-73.724542
633.920676	-73.817694
634.054749	-73.907542
634.188879	-73.985627
634.323065	-74.043833
634.457308	-74.075695
634.591608	-74.076597
634.725965	-74.046236
634.860379	-73.987591
634.994850	-73.903199
635.129377	-73.796271
635.263962	-73.672351
635.398604	-73.538434
635.533303	-73.402595
635.668058	-73.269753
635.802872	-73.143962
635.937742	-73.030515
636.072669	-72.933755
636.207654	-72.854496
636.342696	-72.792027
636.477796	-72.748213
636.612953	-72.725500
636.748167	-72.723131
636.883439	-72.738777
637.018768	-72.770114
637.154155	-72.814142
637.289599	-72.866875
637.425101	-72.921466
637.560660	-72.969766
637.696277	-73.005770
637.831952	-73.024791
637.967685	-73.023246
638.103475	-72.995745
638.239324	-72.938603
638.375230	-72.854487
638.511194	-72.749367
638.647215	-72.627957
638.783295	-72.492659
638.919433	-72.350396
639.055629	-72.211226
639.191883	-72.080930
639.328195	-71.961854
639.464565	-71.855668
639.600994	-71.765119
639.737481	-71.691888
639.874025	-71.635207
640.010629	-71.593478
640.147290	-71.565115
640.284010	-71.548544
640.420789	-71.542069
640.557625	-71.543578
640.694521	-71.549328
640.831474	-71.554629
640.968487	-71.557428
641.105558	-71.556450
641.242687	-71.546834
641.379876	-71.524347
641.517123	-71.487770
641.654429	-71.437877
641.791793	-71.374789
641.929216	-71.298144
642.066699	-71.209432
642.204240	-71.112771
642.341840	-71.011946
642.479499	-70.910786
642.617217	-70.812550
642.754994	-70.720194
642.892830	-70.635280
643.030726	-70.559616
643.168680	-70.493907
643.306694	-70.438213
643.444767	-70.392509
643.582899	-70.356619
643.721091	-70.329444
643.859342	-70.308465
643.997652	-70.290575
644.136022	-70.273012
644.274451	-70.254591
644.412940	-70.234300
644.551488	-70.210482
644.690096	-70.181935
644.828763	-70.147726
644.967490	-70.107783
645.106277	-70.062280
645.245124	-70.011428
645.384030	-69.956043
645.522997	-69.898458
645.662023	-69.841046
645.801109	-69.784229
645.940255	-69.729452
646.079460	-69.678375
646.218726	-69.632414
646.358052	-69.591628
646.497438	-69.555869
646.636884	-69.525581
646.776391	-69.500794
646.915957	-69.479890
647.055584	-69.461212
647.195271	-69.443410
647.335019	-69.425374
647.474826	-69.405998
647.614695	-69.383383
647.754623	-69.356919
647.894612	-69.327254
648.034662	-69.295187
648.174772	-69.261139
648.314943	-69.224874
648.455174	-69.189194
648.595466	-69.156055
648.735819	-69.127237
648.876233	-69.104018
649.016707	-69.087773
649.157242	-69.079028
649.297838	-69.078397
649.438495	-69.087101
649.579213	-69.105052
649.719992	-69.130677
649.860832	-69.161253
650.001733	-69.194819
650.142695	-69.229446
650.283718	-69.262097
650.424803	-69.290028
650.565949	-69.310040
650.707156	-69.319400
650.848424	-69.316234
650.989754	-69.298730
651.131145	-69.266864
651.272597	-69.221741
651.414111	-69.164797
651.555687	-69.097275
651.697324	-69.022388
651.839022	-68.944616
651.980782	-68.867100
652.122604	-68.792762
652.264488	-68.724800
652.406433	-68.666799
652.548441	-68.620815
652.690510	-68.589246
652.832640	-68.574020
652.974833	-68.575570
653.117088	-68.592722
653.259405	-68.624580
653.401784	-68.669991
653.544224	-68.726264
653.686727	-68.791278
653.829293	-68.861190
653.971920	-68.931929
654.114609	-68.999053
654.257361	-69.059896
654.400175	-69.110587
654.543052	-69.147908
654.685991	-69.170766
654.828992	-69.179220
654.972056	-69.172673
655.115183	-69.151537
655.258372	-69.117227
655.401623	-69.072548
655.544937	-69.020532
655.688314	-68.963732
655.831754	-68.903948
655.975256	-68.843834
656.118822	-68.786612
656.262450	-68.734423
656.406141	-68.688091
656.549894	-68.648582
656.693711	-68.616941
656.837591	-68.593590
656.981534	-68.578528
657.125540	-68.572163
657.269610	-68.573948
657.413742	-68.582651
657.557938	-68.598189
657.702196	-68.620469
657.846519	-68.648209
657.990904	-68.680565
658.135353	-68.717221
658.279866	-68.758990
658.424441	-68.805395
658.569081	-68.855853
658.713784	-68.910554
658.858550	-68.969966
659.003381	-69.033214
659.148274	-69.100025
659.293232	-69.169624
659.438253	-69.240417
659.583339	-69.309486
659.728488	-69.375438
659.873701	-69.437613
660.018978	-69.494784
660.164318	-69.543694
660.309723	-69.583043
660.455192	-69.613264
660.600725	-69.635430
660.746323	-69.650087
660.891984	-69.658715
661.037710	-69.664010
661.183500	-69.666782
661.329354	-69.668393
661.475272	-69.672209
661.621255	-69.681129
661.767303	-69.695508
661.913415	-69.714663
662.059591	-69.740877
662.205833	-69.775623
662.352138	-69.818243
662.498509	-69.867872
662.644944	-69.923160
662.791443	-69.982439
662.938008	-70.044645
663.084638	-70.109512
663.231332	-70.175202
663.378091	-70.237881
663.524915	-70.296640
663.671804	-70.351538
663.818759	-70.403387
663.965778	-70.453024
664.112863	-70.501215
664.260012	-70.547375
664.407227	-70.591927
664.554507	-70.637268
664.701853	-70.687086
664.849264	-70.742986
664.996740	-70.805327
665.144282	-70.873411
665.291889	-70.947894
665.439561	-71.029345
665.587300	-71.117816
665.735103	-71.211524
665.882973	-71.306687
666.030908	-71.399686
666.178909	-71.487869
666.326976	-71.567937
666.475109	-71.635729
666.623307	-71.686998
666.771571	-71.717960
666.919902	-71.727763
667.068298	-71.716670
667.216761	-71.683540
667.365289	-71.629107
667.513884	-71.558712
667.662545	-71.477861
667.811272	-71.391705
667.960065	-71.303725
668.108925	-71.216518
668.257851	-71.134670
668.406843	-71.063887
668.555902	-71.005833
668.705027	-70.959041
668.854219	-70.922170
669.003478	-70.895361
669.152803	-70.878152
669.302195	-70.868299
669.451653	-70.862717
669.601179	-70.858608
669.750771	-70.852786
669.900430	-70.841331
670.050156	-70.821900
670.199949	-70.793051
670.349808	-70.752488
670.499735	-70.699469
670.649729	-70.635593
670.799790	-70.562306
670.949918	-70.480053
671.100114	-70.391370
671.250377	-70.300401
671.400707	-70.211147
671.551104	-70.125227
671.701569	-70.043956
671.852101	-69.969639
672.002700	-69.906317
672.153368	-69.856209
672.304102	-69.819105
672.454905	-69.793082
672.605775	-69.776568
672.756713	-69.769045
672.907718	-69.768100
673.058791	-69.770759
673.209933	-69.772830
673.361142	-69.769838
673.512419	-69.757557
673.663764	-69.733996
673.815177	-69.698042
673.966658	-69.648021
674.118207	-69.583120
674.269825	-69.504523
674.421510	-69.415199
674.573264	-69.318924
674.725086	-69.218749
674.876977	-69.117984
675.028936	-69.020901
675.180963	-68.929603
675.333059	-68.845834
675.485224	-68.771678
675.637457	-68.707811
675.789758	-68.652927
675.942129	-68.606237
676.094568	-68.567024
676.247075	-68.532354
676.399652	-68.501287
676.552298	-68.472410
676.705012	-68.443975
676.857795	-68.413213
677.010648	-68.379043
677.163569	-68.340684
677.316560	-68.298105
677.469619	-68.251413
677.622748	-68.199319
677.775946	-68.143924
677.929214	-68.088132
678.082551	-68.033796
678.235957	-67.980978
678.389432	-67.930992
678.542977	-67.886295
678.696592	-67.848578
678.850276	-67.818567
679.004030	-67.795802
679.157853	-67.780109
679.311746	-67.770714
679.465709	-67.766506
679.619742	-67.766673
679.773844	-67.770580
679.928017	-67.776780
680.082259	-67.783934
680.236571	-67.791206
680.390954	-67.798437
680.545406	-67.805761
680.699929	-67.812863
680.854522	-67.819604
681.009185	-67.824880
681.163918	-67.828720
681.318722	-67.830728
681.473596	-67.830490
681.628540	-67.828065
681.783555	-67.824154
681.938641	-67.817839
682.093797	-67.808513
682.249023	-67.797339
682.404321	-67.785661
682.559689	-67.774316
682.715128	-67.763049
682.870637	-67.752231
683.026218	-67.744957
683.181869	-67.742377
683.337591	-67.745055
683.493385	-67.754050
683.649249	-67.769396
683.805185	-67.789531
683.961191	-67.815019
684.117269	-67.844902
684.273418	-67.875495
684.429639	-67.904516
684.585930	-67.930477
684.742294	-67.950858
684.898728	-67.962492
685.055234	-67.964693
685.211812	-67.958615
685.368461	-67.944804
685.525182	-67.923927
685.681975	-67.899460
685.838839	-67.877147
685.995775	-67.859283
686.152783	-67.847182
686.309863	-67.845294
686.467014	-67.856125
686.624238	-67.879625
686.781534	-67.915070
686.938902	-67.961242
687.096342	-68.016624
687.253854	-68.077889
687.411438	-68.141057
687.569095	-68.201885
687.726824	-68.254522
687.884626	-68.296137
688.042499	-68.326804
688.200446	-68.344392
688.358465	-68.349643
688.516556	-68.346389
688.674720	-68.339682
688.832957	-68.332146
688.991266	-68.327790
689.149649	-68.333688
689.308104	-68.355464
689.466632	-68.392426
689.625233	-68.444844
689.783906	-68.516050
689.942653	-68.606818
690.101473	-68.710175
690.260367	-68.821329
690.419333	-68.938006
690.578372	-69.055980
690.737485	-69.168861
690.896672	-69.271533
691.055931	-69.361522
691.215264	-69.435272
691.374671	-69.491908
691.534151	-69.537970
691.693704	-69.578431
691.853332	-69.614459
692.013033	-69.652276
692.172807	-69.701900
692.332656	-69.770622
692.492578	-69.859559
692.652575	-69.970406
692.812645	-70.107192
692.972789	-70.271511
693.133007	-70.456695
693.293300	-70.657188
693.453666	-70.868604
693.614107	-71.082651
693.774622	-71.291955
693.935211	-71.488571
694.095875	-71.667290
694.256613	-71.825553
694.417426	-71.961894
694.578313	-72.078837
694.739274	-72.178567
694.900311	-72.266116
695.061421	-72.350963
695.222607	-72.441350
695.383868	-72.542302
695.545203	-72.659725
695.706613	-72.800327
695.868098	-72.969561
696.029658	-73.164692
696.191293	-73.380307
696.353003	-73.613932
696.514789	-73.863493
696.676649	-74.118407
696.838585	-74.364662
697.000596	-74.596136
697.162682	-74.805660
697.324844	-74.981912
697.487081	-75.116797
697.649394	-75.214055
697.811782	-75.277839
697.974246	-75.309496
698.136786	-75.312173
698.299401	-75.294333
698.462092	-75.264746
698.624859	-75.222420
698.787702	-75.170340
698.950621	-75.114957
699.113616	-75.057609
699.276686	-74.994907
699.439833	-74.926308
699.603056	-74.853028
699.766355	-74.769432
699.929731	-74.670918
700.093183	-74.553477
700.256711	-74.413323
700.420315	-74.245552
700.583996	-74.048038
700.747754	-73.826258
700.911588	-73.581912
701.075499	-73.320723
701.239486	-73.046640
701.403550	-72.767780
701.567691	-72.489755
701.731909	-72.216628
701.896203	-71.952283
702.060575	-71.697109
702.225024	-71.454242
702.389549	-71.223456
702.554152	-71.004711
702.718832	-70.797482
702.883589	-70.600714
703.048424	-70.411475
703.213335	-70.227073
703.378324	-70.045964
703.543391	-69.867155
703.708535	-69.688389
703.873757	-69.510523
704.039056	-69.335671
704.204433	-69.163368
704.369887	-68.992915
704.535420	-68.826617
704.701030	-68.665664
704.866718	-68.506295
705.032484	-68.350421
705.198328	-68.200250
705.364250	-68.053130
705.530250	-67.906764
705.696328	-67.765177
705.862485	-67.629323
706.028720	-67.495322
706.195033	-67.363965
706.361424	-67.237731
706.527894	-67.116182
706.694442	-66.995825
706.861069	-66.876878
707.027775	-66.760156
707.194559	-66.643182
707.361422	-66.524388
707.528363	-66.404592
707.695384	-66.283814
707.862483	-66.161387
708.029661	-66.037737
708.196918	-65.913981
708.364254	-65.789988
708.531670	-65.667586
708.699164	-65.549144
708.866738	-65.435494
709.034391	-65.326476
709.202123	-65.224478
709.369935	-65.130675
709.537826	-65.044455
709.705796	-64.964788
709.873847	-64.890425
710.041976	-64.819753
710.210186	-64.750841
710.378475	-64.682609
710.546844	-64.614091
710.715292	-64.543688
710.883821	-64.471468
711.052429	-64.399169
711.221118	-64.326831
711.389887	-64.255491
711.558735	-64.186915
711.727664	-64.122759
711.896673	-64.063011
712.065763	-64.008618
712.234932	-63.960378
712.404183	-63.917898
712.573513	-63.880730
712.742924	-63.848877
712.912416	-63.821656
713.081988	-63.798411
713.251641	-63.778889
713.421375	-63.761146
713.591190	-63.744136
713.761085	-63.727705
713.931061	-63.710922
714.101119	-63.692777
714.271257	-63.673892
714.441476	-63.655730
714.611777	-63.639134
714.782159	-63.625202
714.952622	-63.615147
715.123166	-63.610633
715.293792	-63.612061
715.464499	-63.618717
715.635288	-63.630789
715.806158	-63.648324
715.977110	-63.670780
716.148143	-63.696777
716.319259	-63.725671
716.490456	-63.756030
716.661735	-63.786133
716.833096	-63.814525
717.004538	-63.839964
717.176063	-63.861309
717.347670	-63.878548
717.519359	-63.892919
717.691130	-63.906003
717.862984	-63.919203
718.034920	-63.934228
718.206938	-63.953438
718.379039	-63.979311
718.551222	-64.012275
718.723488	-64.052417
718.895836	-64.099344
719.068267	-64.150953
719.240781	-64.205804
719.413377	-64.262031
719.586057	-64.316647
719.758819	-64.367657
719.931664	-64.414630
720.104593	-64.455602
720.277604	-64.490229
720.450699	-64.521353
720.623876	-64.550535
720.797137	-64.579326
720.970482	-64.611329
721.143910	-64.650124
721.317421	-64.697703
721.491016	-64.756020
721.664694	-64.826112
721.838456	-64.907702
722.012302	-64.999648
722.186231	-65.099579
722.360244	-65.203572
722.534342	-65.308747
722.708523	-65.411110
722.882788	-65.507890
723.057137	-65.596448
723.231570	-65.677575
723.406088	-65.752412
723.580689	-65.825658
723.755375	-65.900854
723.930146	-65.982029
724.105000	-66.071574
724.279940	-66.171863
724.454963	-66.283138
724.630072	-66.403477
724.805265	-66.530527
724.980543	-66.661607
725.155905	-66.794157
725.331353	-66.926061
725.506885	-67.055598
725.682503	-67.180563
725.858205	-67.299387
726.033993	-67.410759
726.209865	-67.514908
726.385823	-67.611060
726.561866	-67.697811
726.737995	-67.777578
726.914209	-67.850886
727.090508	-67.919209
727.266893	-67.983112
727.443364	-68.043631
727.619920	-68.100087
727.796562	-68.151447
727.973290	-68.194756
728.150103	-68.226797
728.327003	-68.243621
728.503988	-68.243140
728.681060	-68.222960
728.858218	-68.182338
729.035461	-68.123945
729.212791	-68.049287
729.390208	-67.960933
729.567710	-67.864487
