# 2022-03-22_13.35.46
# shape = sech2
# FWHM_ps = 0.11
# carrier_nm = 1542
# frep_MHz = 12126
# pow_mW = 8000
# GDD = 0.0
# propa_len = 0.16
# untap_len = 0.01
# taper_len = 0.1
# waist_len = 0.02
# uptap_len = 0.02
# untap_scale = 1.0
# waist_scale = 0.3526315789473685
# workingDir = NL_20110305_12 (Spirou)
# axis = slow
# window_ps = 10.0
# steps = 200
# points = 21700
# 
# wavelength [nm]	 power spectral density [dB]
600.043425	-143.549580
600.163550	-144.427642
600.283723	-145.269347
600.403943	-145.893274
600.524212	-146.104483
600.644529	-145.812759
600.764895	-145.117115
600.885308	-144.235263
601.005770	-143.377157
601.126280	-142.691425
601.246839	-142.272436
601.367446	-142.180797
601.488101	-142.457084
601.608804	-143.120375
601.729557	-144.136213
601.850357	-145.316572
601.971206	-146.161137
602.092104	-146.052801
602.213050	-145.055280
602.334045	-143.800888
602.455089	-142.711726
602.576181	-141.893355
602.697322	-141.283315
602.818511	-140.736919
602.939749	-140.091732
603.061036	-139.253937
603.182372	-138.253724
603.303757	-137.206009
603.425191	-136.228922
603.546673	-135.399636
603.668204	-134.751872
603.789785	-134.287208
603.911414	-133.985049
604.033092	-133.809108
604.154820	-133.712702
604.276596	-133.646048
604.398422	-133.567080
604.520297	-133.452831
604.642220	-133.305217
604.764193	-133.147049
604.886216	-133.010153
605.008287	-132.921825
605.130408	-132.894065
605.252578	-132.916564
605.374798	-132.953743
605.497066	-132.949188
605.619385	-132.842968
605.741752	-132.600300
605.864169	-132.233331
605.986636	-131.796603
606.109152	-131.360705
606.231718	-130.986209
606.354333	-130.710850
606.476998	-130.547622
606.599712	-130.488170
606.722476	-130.508582
606.845290	-130.577648
606.968154	-130.667825
607.091067	-130.766157
607.214030	-130.879473
607.337043	-131.030272
607.460106	-131.245037
607.583219	-131.540236
607.706381	-131.910270
607.829594	-132.319857
607.952856	-132.706080
608.076169	-132.998372
608.199531	-133.155564
608.322944	-133.196058
608.446407	-133.192168
608.569920	-133.235019
608.693483	-133.402583
608.817096	-133.746033
608.940759	-134.288671
609.064473	-135.028765
609.188237	-135.941980
609.312051	-136.983569
609.435916	-138.092016
609.559831	-139.187711
609.683796	-140.148858
609.807812	-140.766672
609.931878	-140.778705
610.055995	-140.098913
610.180162	-138.966934
610.304380	-137.731328
610.428648	-136.626922
610.552967	-135.755790
610.677337	-135.136633
610.801757	-134.739034
610.926228	-134.498505
611.050750	-134.326596
611.175323	-134.131667
611.299946	-133.853669
611.424620	-133.492587
611.549345	-133.104101
611.674121	-132.767487
611.798948	-132.554804
611.923826	-132.517607
612.048755	-132.686903
612.173734	-133.077772
612.298765	-133.693879
612.423847	-134.530861
612.548980	-135.579532
612.674165	-136.830578
612.799400	-138.278133
612.924687	-139.902759
613.050025	-141.571109
613.175414	-142.761991
613.300854	-142.576935
613.426346	-141.014692
613.551889	-139.054231
613.677484	-137.322918
613.803130	-136.006246
613.928827	-135.131548
614.054576	-134.688397
614.180377	-134.661185
614.306229	-135.034109
614.432132	-135.786841
614.558087	-136.884266
614.684094	-138.262775
614.810153	-139.826712
614.936263	-141.483099
615.062425	-143.213970
615.188639	-145.046983
615.314904	-146.557898
615.441222	-146.143383
615.567591	-143.567767
615.694012	-140.687838
615.820486	-138.310867
615.947011	-136.506867
616.073588	-135.197979
616.200217	-134.289763
616.326898	-133.682979
616.453632	-133.264678
616.580417	-132.905101
616.707255	-132.478254
616.834144	-131.907975
616.961086	-131.202667
617.088081	-130.438683
617.215127	-129.709420
617.342226	-129.086739
617.469378	-128.610200
617.596581	-128.291808
617.723837	-128.124603
617.851146	-128.091599
617.978507	-128.174778
618.105920	-128.363679
618.233386	-128.661769
618.360905	-129.087658
618.488476	-129.668536
618.616100	-130.423012
618.743777	-131.325543
618.871506	-132.238406
618.999288	-132.836779
619.127123	-132.725197
619.255011	-131.855839
619.382951	-130.599721
619.510945	-129.330489
619.638991	-128.234937
619.767090	-127.370557
619.895243	-126.736828
620.023448	-126.311018
620.151706	-126.063680
620.280017	-125.966904
620.408382	-126.001194
620.536799	-126.161577
620.665270	-126.461320
620.793794	-126.931674
620.922371	-127.617699
621.051002	-128.570341
621.179686	-129.829299
621.308423	-131.371014
621.437213	-132.951684
621.566057	-133.860060
621.694954	-133.364499
621.823905	-131.861325
621.952909	-130.183012
622.081967	-128.711065
622.211079	-127.524597
622.340244	-126.612055
622.469462	-125.947827
622.598735	-125.511932
622.728061	-125.292466
622.857441	-125.283271
622.986874	-125.480646
623.116361	-125.879971
623.245903	-126.471569
623.375498	-127.234136
623.505147	-128.122700
623.634850	-129.047858
623.764606	-129.852623
623.894417	-130.324200
624.024282	-130.297907
624.154201	-129.792711
624.284174	-128.992140
624.414202	-128.099404
624.544283	-127.251544
624.674419	-126.518982
624.804609	-125.929521
624.934853	-125.486717
625.065151	-125.179599
625.195504	-124.987399
625.325911	-124.882740
625.456373	-124.835929
625.586889	-124.821277
625.717460	-124.824237
625.848085	-124.845697
625.978764	-124.900200
626.109498	-125.008580
626.240287	-125.188215
626.371131	-125.444803
626.502029	-125.768770
626.632982	-126.138382
626.763989	-126.530319
626.895052	-126.934326
627.026169	-127.362539
627.157341	-127.843741
627.288568	-128.399466
627.419850	-129.005463
627.551187	-129.548714
627.682579	-129.820227
627.814026	-129.626701
627.945528	-128.975753
628.077085	-128.074120
628.208697	-127.144950
628.340364	-126.321863
628.472087	-125.656125
628.603865	-125.152279
628.735698	-124.794459
628.867586	-124.561373
628.999530	-124.434592
629.131529	-124.403116
629.263584	-124.465570
629.395694	-124.630854
629.527859	-124.917747
629.660080	-125.354004
629.792357	-125.975793
629.924689	-126.828442
630.057077	-127.969706
630.189520	-129.479071
630.322019	-131.482093
630.454574	-134.217483
630.587184	-138.267254
630.719851	-145.862830
630.852573	-153.885943
630.985351	-141.197833
631.118185	-136.279943
631.251075	-133.209225
631.384021	-131.015212
631.517023	-129.375188
631.650081	-128.151910
631.783195	-127.275077
631.916365	-126.698736
632.049592	-126.382609
632.182874	-126.282215
632.316213	-126.343450
632.449608	-126.502828
632.583059	-126.696387
632.716567	-126.876755
632.850131	-127.029216
632.983751	-127.172636
633.117428	-127.342080
633.251161	-127.564567
633.384951	-127.841615
633.518797	-128.146290
633.652700	-128.438200
633.786660	-128.694355
633.920676	-128.939274
634.054749	-129.251072
634.188879	-129.742697
634.323065	-130.540234
634.457308	-131.772929
634.591608	-133.559710
634.725965	-135.880964
634.860379	-137.883845
634.994850	-137.421767
635.129377	-135.057339
635.263962	-132.768860
635.398604	-131.041024
635.533303	-129.827862
635.668058	-129.024029
635.802872	-128.540375
635.937742	-128.309896
636.072669	-128.285733
636.207654	-128.438591
636.342696	-128.749744
636.477796	-129.192452
636.612953	-129.696581
636.748167	-130.105937
636.883439	-130.190219
637.018768	-129.801642
637.154155	-129.047483
637.289599	-128.205726
637.425101	-127.525271
637.560660	-127.158181
637.696277	-127.188887
637.831952	-127.674519
637.967685	-128.675309
638.103475	-130.285763
638.239324	-132.693991
638.375230	-136.339718
638.511194	-142.227029
638.647215	-144.382667
638.783295	-137.720008
638.919433	-133.339113
639.055629	-130.377071
639.191883	-128.239824
639.328195	-126.681717
639.464565	-125.577676
639.600994	-124.839057
639.737481	-124.377696
639.874025	-124.090004
640.010629	-123.860102
640.147290	-123.587697
640.284010	-123.228036
640.420789	-122.806212
640.557625	-122.387854
640.694521	-122.035633
640.831474	-121.784580
640.968487	-121.640059
641.105558	-121.588019
641.242687	-121.609482
641.379876	-121.693610
641.517123	-121.844803
641.654429	-122.082040
641.791793	-122.432414
641.929216	-122.923911
642.066699	-123.581613
642.204240	-124.428042
642.341840	-125.485948
642.479499	-126.780564
642.617217	-128.336385
642.754994	-130.157768
642.892830	-132.170731
643.030726	-134.097853
643.168680	-135.376032
643.306694	-135.551446
643.444767	-134.801869
643.582899	-133.541613
643.721091	-132.026038
643.859342	-130.433988
643.997652	-128.930403
644.136022	-127.633878
644.274451	-126.595307
644.412940	-125.803948
644.551488	-125.201316
644.690096	-124.699662
644.828763	-124.212608
644.967490	-123.693552
645.106277	-123.155876
645.245124	-122.655514
645.384030	-122.252552
645.522997	-121.980832
645.662023	-121.834694
645.801109	-121.768552
645.940255	-121.708537
646.079460	-121.580499
646.218726	-121.347449
646.358052	-121.028931
646.497438	-120.682943
646.636884	-120.367726
646.776391	-120.113031
646.915957	-119.911439
647.055584	-119.726885
647.195271	-119.516703
647.335019	-119.259189
647.474826	-118.968993
647.614695	-118.688035
647.754623	-118.460336
647.894612	-118.309219
648.034662	-118.227346
648.174772	-118.180977
648.314943	-118.127074
648.455174	-118.037089
648.595466	-117.912821
648.735819	-117.782000
648.876233	-117.678681
649.016707	-117.625140
649.157242	-117.625994
649.297838	-117.674513
649.438495	-117.763825
649.579213	-117.893420
649.719992	-118.064752
649.860832	-118.267481
650.001733	-118.466552
650.142695	-118.604461
650.283718	-118.627738
650.424803	-118.524161
650.565949	-118.335436
650.707156	-118.130975
650.848424	-117.970293
650.989754	-117.883756
651.131145	-117.875320
651.272597	-117.935887
651.414111	-118.054590
651.555687	-118.218757
651.697324	-118.400747
651.839022	-118.541983
651.980782	-118.556430
652.122604	-118.371982
652.264488	-117.986592
652.406433	-117.476695
652.548441	-116.946054
652.690510	-116.473132
652.832640	-116.094753
652.974833	-115.818036
653.117088	-115.641882
653.259405	-115.575436
653.401784	-115.645756
653.544224	-115.893034
653.686727	-116.357839
653.829293	-117.064901
653.971920	-118.003399
654.114609	-119.101821
654.257361	-120.207852
654.400175	-121.115967
654.543052	-121.674641
654.685991	-121.866762
654.828992	-121.737715
654.972056	-121.305637
655.115183	-120.607258
655.258372	-119.771859
655.401623	-118.983770
655.544937	-118.397530
655.688314	-118.102747
655.831754	-118.133062
655.975256	-118.485462
656.118822	-119.138756
656.262450	-120.075552
656.406141	-121.313290
656.549894	-122.944884
656.693711	-125.194105
656.837591	-128.540545
656.981534	-134.120440
657.125540	-139.789098
657.269610	-132.932927
657.413742	-128.588541
657.557938	-126.138710
657.702196	-124.680125
657.846519	-123.792813
657.990904	-123.219090
658.135353	-122.763439
658.279866	-122.261454
658.424441	-121.591029
658.569081	-120.715112
658.713784	-119.701509
658.858550	-118.676570
659.003381	-117.755012
659.148274	-117.002518
659.293232	-116.433455
659.438253	-116.024669
659.583339	-115.734896
659.728488	-115.524712
659.873701	-115.369523
660.018978	-115.257135
660.164318	-115.170491
660.309723	-115.070807
660.455192	-114.903074
660.600725	-114.632390
660.746323	-114.283971
660.891984	-113.943164
661.037710	-113.714713
661.183500	-113.681882
661.329354	-113.887908
661.475272	-114.333189
661.621255	-114.978322
661.767303	-115.752071
661.913415	-116.566074
662.059591	-117.326374
662.205833	-117.921854
662.352138	-118.207387
662.498509	-118.068600
662.644944	-117.563427
662.791443	-116.927779
662.938008	-116.417021
663.084638	-116.197472
663.231332	-116.336564
663.378091	-116.811851
663.524915	-117.490801
663.671804	-118.094522
663.818759	-118.262074
663.965778	-117.817925
664.112863	-116.920453
664.260012	-115.840592
664.407227	-114.765311
664.554507	-113.795976
664.701853	-112.994294
664.849264	-112.403098
664.996740	-112.048249
665.144282	-111.935787
665.291889	-112.049377
665.439561	-112.348224
665.587300	-112.765785
665.735103	-113.211934
665.882973	-113.584598
666.030908	-113.796779
666.178909	-113.813570
666.326976	-113.673711
666.475109	-113.472488
666.623307	-113.318026
666.771571	-113.292225
666.919902	-113.429936
667.068298	-113.711586
667.216761	-114.066373
667.365289	-114.393234
667.513884	-114.602466
667.662545	-114.651356
667.811272	-114.539546
667.960065	-114.281323
668.108925	-113.901852
668.257851	-113.457597
668.406843	-113.039838
668.555902	-112.748076
668.705027	-112.660060
668.854219	-112.818532
669.003478	-113.232434
669.152803	-113.883370
669.302195	-114.729914
669.451653	-115.700881
669.601179	-116.667166
669.750771	-117.409756
669.900430	-117.683848
670.050156	-117.434088
670.199949	-116.872477
670.349808	-116.255346
670.499735	-115.691453
670.649729	-115.128740
670.799790	-114.441339
670.949918	-113.557704
671.100114	-112.529421
671.250377	-111.473948
671.400707	-110.483185
671.551104	-109.591446
671.701569	-108.794957
671.852101	-108.084813
672.002700	-107.469176
672.153368	-106.975601
672.304102	-106.638027
672.454905	-106.480681
672.605775	-106.507715
672.756713	-106.701139
672.907718	-107.027789
673.058791	-107.455439
673.209933	-107.973074
673.361142	-108.602655
673.512419	-109.392741
673.663764	-110.398209
673.815177	-111.658514
673.966658	-113.185209
674.118207	-114.969481
674.269825	-117.026729
674.421510	-119.486982
674.573264	-122.688765
674.725086	-126.844759
674.876977	-127.834581
675.028936	-123.533717
675.180963	-119.851677
675.333059	-117.188569
675.485224	-115.123901
675.637457	-113.385459
675.789758	-111.847318
675.942129	-110.484777
676.094568	-109.319452
676.247075	-108.376002
676.399652	-107.662902
676.552298	-107.170805
676.705012	-106.878525
676.857795	-106.760916
677.010648	-106.795924
677.163569	-106.968936
677.316560	-107.273017
677.469619	-107.704973
677.622748	-108.258546
677.775946	-108.916852
677.929214	-109.645850
678.082551	-110.390661
678.235957	-111.078075
678.389432	-111.629174
678.542977	-111.981892
678.696592	-112.113252
678.850276	-112.045481
679.004030	-111.831810
679.157853	-111.534551
679.311746	-111.209391
679.465709	-110.899145
679.619742	-110.632896
679.773844	-110.427048
679.928017	-110.287558
680.082259	-110.213961
680.236571	-110.204935
680.390954	-110.263169
680.545406	-110.396399
680.699929	-110.612484
680.854522	-110.909382
681.009185	-111.263457
681.163918	-111.620335
681.318722	-111.894692
681.473596	-111.988833
681.628540	-111.833752
681.783555	-111.430465
681.938641	-110.852646
682.093797	-110.205969
682.249023	-109.581683
682.404321	-109.032599
682.559689	-108.571317
682.715128	-108.182318
682.870637	-107.842388
683.026218	-107.542188
683.181869	-107.297481
683.337591	-107.142420
683.493385	-107.109597
683.649249	-107.207779
683.805185	-107.405158
683.961191	-107.625159
684.117269	-107.768461
684.273418	-107.767290
684.429639	-107.635481
684.585930	-107.460029
684.742294	-107.344994
684.898728	-107.365450
685.055234	-107.555216
685.211812	-107.917466
685.368461	-108.446352
685.525182	-109.153467
685.681975	-110.090966
685.838839	-111.358702
685.995775	-113.069952
686.152783	-115.141041
686.309863	-116.460171
686.467014	-115.141528
686.624238	-112.377694
686.781534	-109.827034
686.938902	-107.810263
687.096342	-106.270232
687.253854	-105.116748
687.411438	-104.278851
687.569095	-103.704822
687.726824	-103.355916
687.884626	-103.202131
688.042499	-103.221887
688.200446	-103.404913
688.358465	-103.755202
688.516556	-104.289616
688.674720	-105.028625
688.832957	-105.976752
688.991266	-107.089756
689.149649	-108.229360
689.308104	-109.142339
689.466632	-109.566286
689.625233	-109.448013
689.783906	-108.972958
689.942653	-108.370081
690.101473	-107.797365
690.260367	-107.353370
690.419333	-107.107838
690.578372	-107.113312
690.737485	-107.406752
690.896672	-108.012263
691.055931	-108.949908
691.215264	-110.253981
691.374671	-112.004435
691.534151	-114.375582
691.693704	-117.682833
691.853332	-121.867373
692.013033	-122.194131
692.172807	-118.134945
692.332656	-114.899492
692.492578	-112.717576
692.652575	-111.244240
692.812645	-110.224974
692.972789	-109.463488
693.133007	-108.804373
693.293300	-108.152015
693.453666	-107.490259
693.614107	-106.864515
693.774622	-106.332487
693.935211	-105.920542
694.095875	-105.605655
694.256613	-105.325239
694.417426	-105.014411
694.578313	-104.654297
694.739274	-104.291287
694.900311	-104.008988
695.061421	-103.883832
695.222607	-103.957988
695.383868	-104.232556
695.545203	-104.669705
695.706613	-105.195513
695.868098	-105.700038
696.029658	-106.038702
696.191293	-106.058812
696.353003	-105.676642
696.514789	-104.948701
696.676649	-104.034963
696.838585	-103.093820
697.000596	-102.222409
697.162682	-101.459638
697.324844	-100.813654
697.487081	-100.287582
697.649394	-99.893719
697.811782	-99.654567
697.974246	-99.595038
698.136786	-99.732622
698.299401	-100.070412
698.462092	-100.595391
698.624859	-101.283647
698.787702	-102.113459
698.950621	-103.082949
699.113616	-104.222570
699.276686	-105.592619
699.439833	-107.264241
699.603056	-109.285010
699.766355	-111.614054
699.929731	-113.993060
700.093183	-115.833888
700.256711	-116.573817
700.420315	-116.302237
700.583996	-115.470597
700.747754	-114.445921
700.911588	-113.489575
701.075499	-112.747477
701.239486	-112.211414
701.403550	-111.713880
701.567691	-111.013948
701.731909	-110.006339
701.896203	-108.832307
702.060575	-107.725160
702.225024	-106.838889
702.389549	-106.213263
702.554152	-105.801712
702.718832	-105.510507
702.883589	-105.252037
703.048424	-105.002014
703.213335	-104.815850
703.378324	-104.786483
703.543391	-104.983743
703.708535	-105.408161
703.873757	-105.956670
704.039056	-106.412257
704.204433	-106.527510
704.369887	-106.208728
704.535420	-105.577292
704.701030	-104.822765
704.866718	-104.084027
705.032484	-103.446006
705.198328	-102.967371
705.364250	-102.690417
705.530250	-102.636071
705.696328	-102.797511
705.862485	-103.141138
706.028720	-103.621353
706.195033	-104.210815
706.361424	-104.932689
706.527894	-105.871582
706.694442	-107.158304
706.861069	-108.947424
707.027775	-111.390406
707.194559	-114.486797
707.361422	-117.231306
707.528363	-117.124944
707.695384	-115.111512
707.862483	-113.230461
708.029661	-111.815475
708.196918	-110.787161
708.364254	-110.071465
708.531670	-109.602162
708.699164	-109.269392
708.866738	-108.913844
709.034391	-108.403879
709.202123	-107.726697
709.369935	-106.958538
709.537826	-106.147864
709.705796	-105.265479
709.873847	-104.266907
710.041976	-103.181462
710.210186	-102.116626
710.378475	-101.185373
710.546844	-100.446581
710.715292	-99.891416
710.883821	-99.459691
711.052429	-99.075436
711.221118	-98.692104
711.389887	-98.320029
711.558735	-98.013458
711.727664	-97.833752
711.896673	-97.822057
712.065763	-97.993949
712.234932	-98.350236
712.404183	-98.894372
712.573513	-99.647291
712.742924	-100.651937
712.912416	-101.964913
713.081988	-103.636377
713.251641	-105.674088
713.421375	-107.972453
713.591190	-110.185133
713.761085	-111.654076
713.931061	-111.809342
714.101119	-110.822343
714.271257	-109.368042
714.441476	-108.008353
714.611777	-107.034683
714.782159	-106.546357
714.952622	-106.512638
715.123166	-106.763158
715.293792	-106.948281
715.464499	-106.657239
715.635288	-105.787387
715.806158	-104.618530
715.977110	-103.454407
716.148143	-102.441123
716.319259	-101.612641
716.490456	-100.956834
716.661735	-100.446315
716.833096	-100.046348
717.004538	-99.716508
717.176063	-99.416510
717.347670	-99.118122
717.519359	-98.816134
717.691130	-98.528769
717.862984	-98.286195
718.034920	-98.115395
718.206938	-98.030637
718.379039	-98.033304
718.551222	-98.119952
718.723488	-98.294472
718.895836	-98.578073
719.068267	-99.011932
719.240781	-99.653351
719.413377	-100.572120
719.586057	-101.856424
719.758819	-103.639473
719.931664	-106.167122
720.104593	-109.933778
720.277604	-115.022279
720.450699	-113.247387
720.623876	-108.036472
720.797137	-104.497878
720.970482	-102.080894
721.143910	-100.359228
721.317421	-99.081176
721.491016	-98.072694
721.664694	-97.212824
721.838456	-96.438530
722.012302	-95.743589
722.186231	-95.156657
722.360244	-94.710451
722.534342	-94.419578
722.708523	-94.271921
722.882788	-94.230206
723.057137	-94.240808
723.231570	-94.248339
723.406088	-94.211981
