# 2022-03-22_09.56.40
# shape = sech2
# FWHM_ps = 0.11
# carrier_nm = 1542
# frep_MHz = 12126
# pow_mW = 8000
# GDD = 0.0
# propa_len = 0.11866666666666668
# untap_len = 0.01
# taper_len = 0.05866666666666667
# waist_len = 0.02
# uptap_len = 0.02
# untap_scale = 1.0
# waist_scale = 0.22631578947368425
# workingDir = NL_20110305_12 (Spirou)
# axis = slow
# window_ps = 10.0
# steps = 200
# points = 21700
# 
# wavelength [nm]	 power spectral density [dB]
600.043425	-77.778504
600.163550	-77.897345
600.283723	-78.119847
600.403943	-78.467252
600.524212	-78.936387
600.644529	-79.511441
600.764895	-80.161272
600.885308	-80.843438
601.005770	-81.536584
601.126280	-82.235234
601.246839	-82.950892
601.367446	-83.725874
601.488101	-84.615853
601.608804	-85.711222
601.729557	-87.127646
601.850357	-89.041872
601.971206	-91.637210
602.092104	-94.752902
602.213050	-95.788821
602.334045	-93.025883
602.455089	-89.956019
602.576181	-87.653566
602.697322	-85.994551
602.818511	-84.790297
602.939749	-83.857818
603.061036	-83.075290
603.182372	-82.340926
603.303757	-81.606524
603.425191	-80.853254
603.546673	-80.093942
603.668204	-79.348266
603.789785	-78.647674
603.911414	-78.020027
604.033092	-77.485295
604.154820	-77.057225
604.276596	-76.735427
604.398422	-76.509033
604.520297	-76.349894
604.642220	-76.224877
604.764193	-76.103448
604.886216	-75.965652
605.008287	-75.806700
605.130408	-75.632596
605.252578	-75.460469
605.374798	-75.305714
605.497066	-75.191303
605.619385	-75.133232
605.741752	-75.148659
605.864169	-75.246269
605.986636	-75.429831
606.109152	-75.683360
606.231718	-75.996389
606.354333	-76.338589
606.476998	-76.688694
606.599712	-77.027935
606.722476	-77.352358
606.845290	-77.673165
606.968154	-78.012980
607.091067	-78.405335
607.214030	-78.885003
607.337043	-79.490421
607.460106	-80.265072
607.583219	-81.248628
607.706381	-82.472625
607.829594	-83.950439
607.952856	-85.652064
608.076169	-87.442962
608.199531	-88.979859
608.322944	-89.787219
608.446407	-89.683085
608.569920	-89.027766
608.693483	-88.152793
608.817096	-87.190804
608.940759	-86.129071
609.064473	-84.960641
609.188237	-83.687789
609.312051	-82.394080
609.435916	-81.160675
609.559831	-80.050390
609.683796	-79.094981
609.807812	-78.305999
609.931878	-77.679829
610.055995	-77.197643
610.180162	-76.832327
610.304380	-76.556928
610.428648	-76.341673
610.552967	-76.154920
610.677337	-75.966264
610.801757	-75.759128
610.926228	-75.526193
611.050750	-75.273566
611.175323	-75.026518
611.299946	-74.819278
611.424620	-74.690155
611.549345	-74.656485
611.674121	-74.731076
611.798948	-74.907571
611.923826	-75.171266
612.048755	-75.495826
612.173734	-75.853123
612.298765	-76.209680
612.423847	-76.547709
612.548980	-76.854080
612.674165	-77.134029
612.799400	-77.404760
612.924687	-77.712459
613.050025	-78.101861
613.175414	-78.622177
613.300854	-79.300426
613.426346	-80.139371
613.551889	-81.092881
613.677484	-82.046577
613.803130	-82.809159
613.928827	-83.203229
614.054576	-83.182087
614.180377	-82.868872
614.306229	-82.422693
614.432132	-81.958609
614.558087	-81.528398
614.684094	-81.129857
614.810153	-80.728648
614.936263	-80.277982
615.062425	-79.733868
615.188639	-79.086089
615.314904	-78.370576
615.441222	-77.649564
615.567591	-76.977535
615.694012	-76.392038
615.820486	-75.908865
615.947011	-75.524210
616.073588	-75.230923
616.200217	-75.015562
616.326898	-74.868165
616.453632	-74.776184
616.580417	-74.731344
616.707255	-74.719440
616.834144	-74.727179
616.961086	-74.739083
617.088081	-74.758533
617.215127	-74.793382
617.342226	-74.863359
617.469378	-74.983433
617.596581	-75.174894
617.723837	-75.448908
617.851146	-75.811818
617.978507	-76.263843
618.105920	-76.801468
618.233386	-77.416790
618.360905	-78.085588
618.488476	-78.773770
618.616100	-79.425460
618.743777	-79.999240
618.871506	-80.452309
618.999288	-80.791427
619.127123	-81.031918
619.255011	-81.208183
619.382951	-81.302329
619.510945	-81.268200
619.638991	-81.038020
619.767090	-80.578508
619.895243	-79.900427
620.023448	-79.076448
620.151706	-78.194681
620.280017	-77.338686
620.408382	-76.558867
620.536799	-75.884574
620.665270	-75.319545
620.793794	-74.859136
620.922371	-74.481071
621.051002	-74.169871
621.179686	-73.900639
621.308423	-73.661183
621.437213	-73.441167
621.566057	-73.234137
621.694954	-73.042556
621.823905	-72.871360
621.952909	-72.729305
622.081967	-72.621873
622.211079	-72.557889
622.340244	-72.545245
622.469462	-72.588390
622.598735	-72.691026
622.728061	-72.853318
622.857441	-73.083467
622.986874	-73.377980
623.116361	-73.740880
623.245903	-74.160739
623.375498	-74.631339
623.505147	-75.123207
623.634850	-75.622353
623.764606	-76.108350
623.894417	-76.602232
624.024282	-77.123562
624.154201	-77.724396
624.284174	-78.423482
624.414202	-79.248166
624.544283	-80.160693
624.674419	-81.049239
624.804609	-81.661382
624.934853	-81.722305
625.065151	-81.174284
625.195504	-80.239860
625.325911	-79.193039
625.456373	-78.216180
625.586889	-77.373796
625.717460	-76.674547
625.848085	-76.084210
625.978764	-75.563475
626.109498	-75.075800
626.240287	-74.600885
626.371131	-74.134373
626.502029	-73.680652
626.632982	-73.252400
626.763989	-72.862081
626.895052	-72.518520
627.026169	-72.226644
627.157341	-71.990005
627.288568	-71.811437
627.419850	-71.690023
627.551187	-71.621277
627.682579	-71.601815
627.814026	-71.621628
627.945528	-71.679893
628.077085	-71.770747
628.208697	-71.889256
628.340364	-72.024629
628.472087	-72.163720
628.603865	-72.295778
628.735698	-72.414516
628.867586	-72.530534
628.999530	-72.663521
629.131529	-72.840233
629.263584	-73.082046
629.395694	-73.401120
629.527859	-73.790947
629.660080	-74.233436
629.792357	-74.700582
629.924689	-75.155324
630.057077	-75.559113
630.189520	-75.869779
630.322019	-76.071718
630.454574	-76.174221
630.587184	-76.210689
630.719851	-76.220909
630.852573	-76.235242
630.985351	-76.260343
631.118185	-76.280240
631.251075	-76.271509
631.384021	-76.205911
631.517023	-76.070323
631.650081	-75.871884
631.783195	-75.617837
631.916365	-75.322176
632.049592	-74.991168
632.182874	-74.648775
632.316213	-74.316584
632.449608	-74.009406
632.583059	-73.740817
632.716567	-73.514281
632.850131	-73.332197
632.983751	-73.176381
633.117428	-73.028340
633.251161	-72.864058
633.384951	-72.665730
633.518797	-72.424789
633.652700	-72.144222
633.786660	-71.842079
633.920676	-71.541523
634.054749	-71.271737
634.188879	-71.045504
634.323065	-70.871978
634.457308	-70.747238
634.591608	-70.667834
634.725965	-70.620812
634.860379	-70.601393
634.994850	-70.604237
635.129377	-70.629770
635.263962	-70.679484
635.398604	-70.750819
635.533303	-70.843470
635.668058	-70.948492
635.802872	-71.067627
635.937742	-71.205978
636.072669	-71.377070
636.207654	-71.598317
636.342696	-71.891982
636.477796	-72.284092
636.612953	-72.790364
636.748167	-73.420597
636.883439	-74.163803
637.018768	-74.988881
637.154155	-75.832087
637.289599	-76.615673
637.425101	-77.260737
637.560660	-77.715993
637.696277	-77.979138
637.831952	-78.062997
637.967685	-77.972099
638.103475	-77.672111
638.239324	-77.132788
638.375230	-76.404145
638.511194	-75.552848
638.647215	-74.662307
638.783295	-73.788279
638.919433	-72.966504
639.055629	-72.202979
639.191883	-71.497158
639.328195	-70.846602
639.464565	-70.258246
639.600994	-69.736897
639.737481	-69.292955
639.874025	-68.929982
640.010629	-68.651392
640.147290	-68.455869
640.284010	-68.337754
640.420789	-68.282261
640.557625	-68.272705
640.694521	-68.295183
640.831474	-68.340232
640.968487	-68.408797
641.105558	-68.507852
641.242687	-68.654716
641.379876	-68.866764
641.517123	-69.158624
641.654429	-69.539453
641.791793	-70.014811
641.929216	-70.596596
642.066699	-71.299070
642.204240	-72.147454
642.341840	-73.177232
642.479499	-74.432511
642.617217	-75.975359
642.754994	-77.859444
642.892830	-80.113493
643.030726	-82.451876
643.168680	-83.682812
643.306694	-82.654364
643.444767	-80.509231
643.582899	-78.430111
643.721091	-76.664146
643.859342	-75.172224
643.997652	-73.890817
644.136022	-72.764093
644.274451	-71.762291
644.412940	-70.882877
644.551488	-70.117315
644.690096	-69.464230
644.828763	-68.915961
644.967490	-68.461742
645.106277	-68.087707
645.245124	-67.783641
645.384030	-67.546767
645.522997	-67.379299
645.662023	-67.285433
645.801109	-67.277108
645.940255	-67.359336
646.079460	-67.537914
646.218726	-67.809340
646.358052	-68.168634
646.497438	-68.604022
646.636884	-69.103473
646.776391	-69.659589
646.915957	-70.277822
647.055584	-70.977387
647.195271	-71.795643
647.335019	-72.786566
647.474826	-74.021369
647.614695	-75.578294
647.754623	-77.560409
647.894612	-80.068991
648.034662	-83.099563
648.174772	-85.568320
648.314943	-84.692465
648.455174	-81.750384
648.595466	-78.977411
648.735819	-76.707825
648.876233	-74.863069
649.016707	-73.360455
649.157242	-72.137327
649.297838	-71.150605
649.438495	-70.365415
649.579213	-69.749841
649.719992	-69.273488
649.860832	-68.908190
650.001733	-68.626294
650.142695	-68.410380
650.283718	-68.247196
650.424803	-68.138450
650.565949	-68.089499
650.707156	-68.114152
650.848424	-68.222930
650.989754	-68.419663
651.131145	-68.706728
651.272597	-69.079690
651.414111	-69.541046
651.555687	-70.101779
651.697324	-70.783908
651.839022	-71.620113
651.980782	-72.650083
652.122604	-73.922935
652.264488	-75.488164
652.406433	-77.378270
652.548441	-79.568179
652.690510	-81.752272
652.832640	-82.916822
652.974833	-82.171721
653.117088	-80.337349
653.259405	-78.428037
653.401784	-76.762460
653.544224	-75.373811
653.686727	-74.228656
653.829293	-73.284564
653.971920	-72.504531
654.114609	-71.854167
654.257361	-71.311428
654.400175	-70.851711
654.543052	-70.459213
654.685991	-70.126921
654.828992	-69.858511
654.972056	-69.663622
655.115183	-69.556765
655.258372	-69.551550
655.401623	-69.655827
655.544937	-69.870248
655.688314	-70.186736
655.831754	-70.601162
655.975256	-71.113500
656.118822	-71.738356
656.262450	-72.500204
656.406141	-73.438148
656.549894	-74.577959
656.693711	-75.926075
656.837591	-77.434694
656.981534	-78.930582
657.125540	-80.078652
657.269610	-80.538701
657.413742	-80.278454
657.557938	-79.550605
657.702196	-78.623483
657.846519	-77.622356
657.990904	-76.596318
658.135353	-75.593392
658.279866	-74.672907
658.424441	-73.877965
658.569081	-73.236429
658.713784	-72.744780
658.858550	-72.381104
659.003381	-72.100986
659.148274	-71.873629
659.293232	-71.690754
659.438253	-71.571717
659.583339	-71.549515
659.728488	-71.658899
659.873701	-71.919787
660.018978	-72.330363
660.164318	-72.860416
660.309723	-73.458426
660.455192	-74.070665
660.600725	-74.657298
660.746323	-75.202424
660.891984	-75.718448
661.037710	-76.195946
661.183500	-76.585702
661.329354	-76.801719
661.475272	-76.771815
661.621255	-76.507236
661.767303	-76.113344
661.913415	-75.718812
662.059591	-75.418562
662.205833	-75.229865
662.352138	-75.114662
662.498509	-75.006697
662.644944	-74.861167
662.791443	-74.681076
662.938008	-74.520505
663.084638	-74.446395
663.231332	-74.500825
663.378091	-74.696941
663.524915	-75.005575
663.671804	-75.382427
663.818759	-75.786626
663.965778	-76.213975
664.112863	-76.684719
664.260012	-77.210492
664.407227	-77.738168
664.554507	-78.112469
664.701853	-78.102701
664.849264	-77.607271
664.996740	-76.740472
665.144282	-75.736561
665.291889	-74.765804
665.439561	-73.903961
665.587300	-73.169000
665.735103	-72.551661
665.882973	-72.037078
666.030908	-71.618296
666.178909	-71.299563
666.326976	-71.083849
666.475109	-70.976508
666.623307	-70.978558
666.771571	-71.089031
666.919902	-71.300081
667.068298	-71.610224
667.216761	-72.025519
667.365289	-72.561103
667.513884	-73.250495
667.662545	-74.138328
667.811272	-75.272947
667.960065	-76.723638
668.108925	-78.601655
668.257851	-81.085599
668.406843	-84.395050
668.555902	-87.538253
668.705027	-85.709272
668.854219	-81.620197
669.003478	-78.365571
669.152803	-75.935037
669.302195	-74.092906
669.451653	-72.668487
669.601179	-71.545022
669.750771	-70.640401
669.900430	-69.902605
670.050156	-69.303493
670.199949	-68.830563
670.349808	-68.483740
670.499735	-68.274269
670.649729	-68.208800
670.799790	-68.284275
670.949918	-68.487757
671.100114	-68.800530
671.250377	-69.207685
671.400707	-69.711002
671.551104	-70.330625
671.701569	-71.109085
671.852101	-72.105155
672.002700	-73.394857
672.153368	-75.082116
672.304102	-77.315504
672.454905	-80.320388
672.605775	-84.308882
672.756713	-87.232419
672.907718	-84.159563
673.058791	-80.084966
673.209933	-76.938237
673.361142	-74.510573
673.512419	-72.612803
673.663764	-71.127335
673.815177	-69.976469
673.966658	-69.097514
674.118207	-68.433973
674.269825	-67.934125
674.421510	-67.565307
674.573264	-67.309013
674.725086	-67.164838
674.876977	-67.148119
675.028936	-67.274959
675.180963	-67.552895
675.333059	-67.979461
675.485224	-68.541059
675.637457	-69.226424
675.789758	-70.025105
675.942129	-70.942783
676.094568	-72.002224
676.247075	-73.225316
676.399652	-74.610584
676.552298	-76.045613
676.705012	-77.205170
676.857795	-77.592882
677.010648	-77.023939
677.163569	-75.844350
677.316560	-74.486845
677.469619	-73.164548
677.622748	-71.947742
677.775946	-70.853501
677.929214	-69.894108
678.082551	-69.086900
678.235957	-68.434350
678.389432	-67.933031
678.542977	-67.567049
678.696592	-67.323990
678.850276	-67.191993
679.004030	-67.168213
679.157853	-67.252326
679.311746	-67.447056
679.465709	-67.749843
679.619742	-68.151432
679.773844	-68.639627
679.928017	-69.190995
680.082259	-69.770926
680.236571	-70.334046
680.390954	-70.812471
680.545406	-71.132905
680.699929	-71.237400
680.854522	-71.131126
681.009185	-70.886714
681.163918	-70.579813
681.318722	-70.255108
681.473596	-69.923494
681.628540	-69.584911
681.783555	-69.253982
681.938641	-68.963516
682.093797	-68.738303
682.249023	-68.588289
682.404321	-68.488059
682.559689	-68.401479
682.715128	-68.292819
682.870637	-68.153944
683.026218	-68.002259
683.181869	-67.865017
683.337591	-67.760016
683.493385	-67.677365
683.649249	-67.586966
683.805185	-67.451180
683.961191	-67.258948
684.117269	-67.036190
684.273418	-66.823571
684.429639	-66.652204
684.585930	-66.524496
684.742294	-66.419569
684.898728	-66.313352
685.055234	-66.203880
685.211812	-66.119987
685.368461	-66.106225
685.525182	-66.200325
685.681975	-66.413332
685.838839	-66.725662
685.995775	-67.093936
686.152783	-67.482338
686.309863	-67.880832
686.467014	-68.300619
686.624238	-68.722361
686.781534	-69.054850
686.938902	-69.142894
687.096342	-68.869539
687.253854	-68.271352
687.411438	-67.494228
687.569095	-66.678863
687.726824	-65.897386
687.884626	-65.168385
688.042499	-64.493312
688.200446	-63.881990
688.358465	-63.357046
688.516556	-62.940483
688.674720	-62.645144
688.832957	-62.472883
688.991266	-62.418215
689.149649	-62.475230
689.308104	-62.642801
689.466632	-62.928360
689.625233	-63.348221
689.783906	-63.918857
689.942653	-64.653071
690.101473	-65.552024
690.260367	-66.589311
690.419333	-67.686629
690.578372	-68.670195
690.737485	-69.259870
690.896672	-69.176388
691.055931	-68.410574
691.215264	-67.232765
691.374671	-65.944796
691.534151	-64.732431
691.693704	-63.667772
691.853332	-62.759847
692.013033	-61.994812
692.172807	-61.360192
692.332656	-60.849147
692.492578	-60.461642
692.652575	-60.196013
692.812645	-60.051048
692.972789	-60.023972
693.133007	-60.114839
693.293300	-60.329449
693.453666	-60.679329
693.614107	-61.185250
693.774622	-61.866062
693.935211	-62.738844
694.095875	-63.808321
694.256613	-65.052339
694.417426	-66.371173
694.578313	-67.496858
694.739274	-67.962545
694.900311	-67.452519
695.061421	-66.232467
695.222607	-64.788354
695.383868	-63.421289
695.545203	-62.239313
695.706613	-61.258671
695.868098	-60.460292
696.029658	-59.817126
696.191293	-59.310578
696.353003	-58.932415
696.514789	-58.680865
696.676649	-58.555710
696.838585	-58.554590
697.000596	-58.669466
697.162682	-58.893100
697.324844	-59.222709
697.487081	-59.663539
697.649394	-60.226057
697.811782	-60.914633
697.974246	-61.714707
698.136786	-62.571994
698.299401	-63.379972
698.462092	-63.978267
698.624859	-64.204537
698.787702	-63.995348
698.950621	-63.416152
699.113616	-62.614494
699.276686	-61.732509
699.439833	-60.875350
699.603056	-60.104232
699.766355	-59.450725
699.929731	-58.923924
700.093183	-58.517962
700.256711	-58.218578
700.420315	-58.014210
700.583996	-57.900757
700.747754	-57.880965
700.911588	-57.958114
701.075499	-58.129651
701.239486	-58.385792
701.403550	-58.712079
701.567691	-59.090159
701.731909	-59.497217
701.896203	-59.904800
702.060575	-60.273292
702.225024	-60.554566
702.389549	-60.700862
702.554152	-60.683959
702.718832	-60.504500
702.883589	-60.196583
703.048424	-59.808560
703.213335	-59.394044
703.378324	-58.993408
703.543391	-58.632960
703.708535	-58.323567
703.873757	-58.069531
704.039056	-57.873138
704.204433	-57.736665
704.369887	-57.662480
704.535420	-57.646427
704.701030	-57.676658
704.866718	-57.734821
705.032484	-57.800193
705.198328	-57.857565
705.364250	-57.903473
705.530250	-57.940164
705.696328	-57.966811
705.862485	-57.973377
706.028720	-57.950183
706.195033	-57.901426
706.361424	-57.845014
706.527894	-57.800034
706.694442	-57.772906
706.861069	-57.755322
707.027775	-57.731680
707.194559	-57.692265
707.361422	-57.643043
707.528363	-57.597325
707.695384	-57.562039
707.862483	-57.530166
708.029661	-57.482544
708.196918	-57.404225
708.364254	-57.296831
708.531670	-57.177505
708.699164	-57.062260
708.866738	-56.950652
709.034391	-56.829323
709.202123	-56.688218
709.369935	-56.536415
709.537826	-56.398074
709.705796	-56.296110
709.873847	-56.239995
710.041976	-56.222200
710.210186	-56.229621
710.378475	-56.256793
710.546844	-56.310711
710.715292	-56.401661
710.883821	-56.526496
711.052429	-56.665123
711.221118	-56.786227
711.389887	-56.865875
711.558735	-56.898161
711.727664	-56.892544
711.896673	-56.851620
712.065763	-56.762310
712.234932	-56.608371
712.404183	-56.390881
712.573513	-56.135473
712.742924	-55.880563
712.912416	-55.656980
713.081988	-55.476645
713.251641	-55.337514
713.421375	-55.238540
713.591190	-55.187037
713.761085	-55.195350
713.931061	-55.270159
714.101119	-55.405058
714.271257	-55.580478
714.441476	-55.768535
714.611777	-55.943461
714.782159	-56.086777
714.952622	-56.186443
715.123166	-56.231227
715.293792	-56.210418
715.464499	-56.119406
715.635288	-55.962288
715.806158	-55.757167
715.977110	-55.530414
716.148143	-55.307747
716.319259	-55.105821
716.490456	-54.934380
716.661735	-54.802087
716.833096	-54.719371
717.004538	-54.698340
717.176063	-54.746959
717.347670	-54.861849
717.519359	-55.025196
717.691130	-55.210102
717.862984	-55.390006
718.034920	-55.542184
718.206938	-55.647461
718.379039	-55.689359
718.551222	-55.654944
718.723488	-55.543342
718.895836	-55.370976
719.068267	-55.167684
719.240781	-54.966085
719.413377	-54.788361
719.586057	-54.641660
719.758819	-54.525005
719.931664	-54.441689
720.104593	-54.401589
720.277604	-54.416127
720.450699	-54.488876
720.623876	-54.610783
720.797137	-54.765248
720.970482	-54.932196
721.143910	-55.096232
721.317421	-55.242419
721.491016	-55.350574
721.664694	-55.392167
721.838456	-55.345171
722.012302	-55.209415
722.186231	-55.012808
722.360244	-54.792787
722.534342	-54.581321
722.708523	-54.395437
722.882788	-54.244262
723.057137	-54.138111
723.231570	-54.092390
723.406088	-54.120264
723.580689	-54.222101
723.755375	-54.382217
723.930146	-54.578601
724.105000	-54.790995
724.279940	-55.005054
724.454963	-55.201994
724.630072	-55.351395
724.805265	-55.411320
724.980543	-55.350238
725.155905	-55.170894
725.331353	-54.910348
725.506885	-54.615992
725.682503	-54.324937
725.858205	-54.060791
726.033993	-53.840962
726.209865	-53.685376
726.385823	-53.618145
726.561866	-53.657733
726.737995	-53.808580
726.914209	-54.059037
727.090508	-54.388620
727.266893	-54.773600
727.443364	-55.185784
727.619920	-55.579863
727.796562	-55.885999
727.973290	-56.019581
728.150103	-55.925836
728.327003	-55.619547
728.503988	-55.176357
728.681060	-54.685638
728.858218	-54.212103
729.035461	-53.792070
729.212791	-53.451154
729.390208	-53.216821
729.567710	-53.113820
