# 2022-03-21_21.19.29
# shape = sech2
# FWHM_ps = 0.1
# carrier_nm = 1542
# frep_MHz = 12126
# pow_mW = 8000
# GDD = 0.0
# propa_len = 0.098
# untap_len = 0.01
# taper_len = 0.038
# waist_len = 0.02
# uptap_len = 0.02
# untap_scale = 1.0
# waist_scale = 0.22631578947368425
# workingDir = NL_20110305_12 (Spirou)
# axis = slow
# window_ps = 10.0
# steps = 200
# points = 21700
# 
# wavelength [nm]	 power spectral density [dB]
600.043425	-76.674866
600.163550	-76.260688
600.283723	-75.881340
600.403943	-75.512288
600.524212	-75.145116
600.644529	-74.783083
600.764895	-74.439731
600.885308	-74.130961
601.005770	-73.875200
601.126280	-73.687836
601.246839	-73.571888
601.367446	-73.526976
601.488101	-73.544816
601.608804	-73.612055
601.729557	-73.710952
601.850357	-73.826158
601.971206	-73.944042
602.092104	-74.061364
602.213050	-74.176596
602.334045	-74.308231
602.455089	-74.472356
602.576181	-74.691966
602.697322	-74.988833
602.818511	-75.380200
602.939749	-75.870126
603.061036	-76.462178
603.182372	-77.147622
603.303757	-77.922358
603.425191	-78.772878
603.546673	-79.690958
603.668204	-80.676463
603.789785	-81.750159
603.911414	-82.953557
604.033092	-84.350405
604.154820	-86.009262
604.276596	-87.934273
604.398422	-89.805568
604.520297	-90.521145
604.642220	-89.260313
604.764193	-87.115488
604.886216	-85.056536
605.008287	-83.320915
605.130408	-81.893943
605.252578	-80.708890
605.374798	-79.700145
605.497066	-78.816788
605.619385	-78.018259
605.741752	-77.277858
605.864169	-76.582189
605.986636	-75.931287
606.109152	-75.332675
606.231718	-74.797996
606.354333	-74.338481
606.476998	-73.961026
606.599712	-73.666232
606.722476	-73.449161
606.845290	-73.295977
606.968154	-73.197385
607.091067	-73.136482
607.214030	-73.106525
607.337043	-73.095126
607.460106	-73.099624
607.583219	-73.116811
607.706381	-73.152415
607.829594	-73.217053
607.952856	-73.326638
608.076169	-73.494789
608.199531	-73.726896
608.322944	-74.033868
608.446407	-74.418779
608.569920	-74.876977
608.693483	-75.400097
608.817096	-75.983534
608.940759	-76.625851
609.064473	-77.331178
609.188237	-78.101970
609.312051	-78.960177
609.435916	-79.918561
609.559831	-81.007520
609.683796	-82.261417
609.807812	-83.703693
609.931878	-85.323019
610.055995	-86.967032
610.180162	-88.123519
610.304380	-88.098929
610.428648	-86.899507
610.552967	-85.233734
610.677337	-83.583044
610.801757	-82.102369
610.926228	-80.823509
611.050750	-79.713269
611.175323	-78.749249
611.299946	-77.903182
611.424620	-77.157573
611.549345	-76.488973
611.674121	-75.890675
611.798948	-75.359335
611.923826	-74.891231
612.048755	-74.480335
612.173734	-74.130992
612.298765	-73.838618
612.423847	-73.601174
612.548980	-73.415937
612.674165	-73.283464
612.799400	-73.207994
612.924687	-73.185694
613.050025	-73.217391
613.175414	-73.292692
613.300854	-73.407482
613.426346	-73.555007
613.551889	-73.730568
613.677484	-73.936035
613.803130	-74.173924
613.928827	-74.448281
614.054576	-74.773142
614.180377	-75.156174
614.306229	-75.609493
614.432132	-76.152462
614.558087	-76.800533
614.684094	-77.563601
614.810153	-78.454462
614.936263	-79.477907
615.062425	-80.643344
615.188639	-81.940691
615.314904	-83.374852
615.441222	-84.925692
615.567591	-86.503712
615.694012	-87.862465
615.820486	-88.489697
615.947011	-87.968555
616.073588	-86.580850
616.200217	-84.893562
616.326898	-83.258801
616.453632	-81.803035
616.580417	-80.547719
616.707255	-79.482523
616.834144	-78.590225
616.961086	-77.839907
617.088081	-77.207853
617.215127	-76.665468
617.342226	-76.197252
617.469378	-75.788231
617.596581	-75.423829
617.723837	-75.100260
617.851146	-74.820150
617.978507	-74.579393
618.105920	-74.376257
618.233386	-74.218123
618.360905	-74.104394
618.488476	-74.036716
618.616100	-74.021999
618.743777	-74.064601
618.871506	-74.161586
618.999288	-74.316368
619.127123	-74.532119
619.255011	-74.806362
619.382951	-75.138150
619.510945	-75.529319
619.638991	-75.976955
619.767090	-76.470723
619.895243	-77.006823
620.023448	-77.586961
620.151706	-78.216082
620.280017	-78.908724
620.408382	-79.683335
620.536799	-80.558296
620.665270	-81.550689
620.793794	-82.665041
620.922371	-83.875994
621.051002	-85.085925
621.179686	-86.091979
621.308423	-86.608392
621.437213	-86.468730
621.566057	-85.767427
621.694954	-84.774004
621.823905	-83.678381
621.952909	-82.588885
622.081967	-81.561931
622.211079	-80.610008
622.340244	-79.744326
622.469462	-78.962898
622.598735	-78.275552
622.728061	-77.681101
622.857441	-77.169831
622.986874	-76.727062
623.116361	-76.349473
623.245903	-76.030154
623.375498	-75.761921
623.505147	-75.550965
623.634850	-75.394791
623.764606	-75.293095
623.894417	-75.253479
624.024282	-75.279421
624.154201	-75.364391
624.284174	-75.500964
624.414202	-75.681557
624.544283	-75.894154
624.674419	-76.124373
624.804609	-76.364414
624.934853	-76.619639
625.065151	-76.899673
625.195504	-77.223055
625.325911	-77.612929
625.456373	-78.087775
625.586889	-78.664676
625.717460	-79.348204
625.848085	-80.135312
625.978764	-81.013872
626.109498	-81.966988
626.240287	-82.949347
626.371131	-83.901357
626.502029	-84.743045
626.632982	-85.362562
626.763989	-85.668107
626.895052	-85.601319
627.026169	-85.202588
627.157341	-84.563337
627.288568	-83.811580
627.419850	-83.030234
627.551187	-82.278961
627.682579	-81.568677
627.814026	-80.894941
627.945528	-80.257655
628.077085	-79.651458
628.208697	-79.076752
628.340364	-78.547746
628.472087	-78.079209
628.603865	-77.687539
628.735698	-77.376471
628.867586	-77.148784
628.999530	-77.001085
629.131529	-76.919973
629.263584	-76.889845
629.395694	-76.882800
629.527859	-76.878082
629.660080	-76.860183
629.792357	-76.830736
629.924689	-76.809555
630.057077	-76.820642
630.189520	-76.888061
630.322019	-77.037631
630.454574	-77.269287
630.587184	-77.586284
630.719851	-77.982404
630.852573	-78.435736
630.985351	-78.940054
631.118185	-79.486975
631.251075	-80.084355
631.384021	-80.740730
631.517023	-81.483906
631.650081	-82.340822
631.783195	-83.343001
631.916365	-84.513045
632.049592	-85.843631
632.182874	-87.264842
632.316213	-88.623991
632.449608	-89.622578
632.583059	-89.868982
632.716567	-89.260020
632.850131	-88.040667
632.983751	-86.549524
633.117428	-85.036004
633.251161	-83.632028
633.384951	-82.388956
633.518797	-81.325398
633.652700	-80.443468
633.786660	-79.724841
633.920676	-79.133917
634.054749	-78.641797
634.188879	-78.215748
634.323065	-77.834726
634.457308	-77.481895
634.591608	-77.159770
634.725965	-76.878578
634.860379	-76.649684
634.994850	-76.489288
635.129377	-76.403100
635.263962	-76.387250
635.398604	-76.431698
635.533303	-76.519022
635.668058	-76.639693
635.802872	-76.790944
635.937742	-76.990811
636.072669	-77.265166
636.207654	-77.643912
636.342696	-78.165273
636.477796	-78.856900
636.612953	-79.743831
636.748167	-80.835657
636.883439	-82.147330
637.018768	-83.672907
637.154155	-85.397730
637.289599	-87.325000
637.425101	-89.409408
637.560660	-91.305082
637.696277	-92.051365
637.831952	-90.864231
637.967685	-88.592778
638.103475	-86.244108
638.239324	-84.216370
638.375230	-82.527205
638.511194	-81.129078
638.647215	-79.959153
638.783295	-78.975398
638.919433	-78.121233
639.055629	-77.366056
639.191883	-76.692098
639.328195	-76.101043
639.464565	-75.602661
639.600994	-75.196233
639.737481	-74.892113
639.874025	-74.679394
640.010629	-74.548693
640.147290	-74.487909
640.284010	-74.482700
640.420789	-74.521810
640.557625	-74.595762
640.694521	-74.706563
640.831474	-74.858005
640.968487	-75.061572
641.105558	-75.332966
641.242687	-75.682544
641.379876	-76.117527
641.517123	-76.633788
641.654429	-77.219752
641.791793	-77.848492
641.929216	-78.493716
642.066699	-79.118789
642.204240	-79.674520
642.341840	-80.085451
642.479499	-80.253830
642.617217	-80.109745
642.754994	-79.657495
642.892830	-78.993059
643.030726	-78.216385
643.168680	-77.431304
643.306694	-76.697638
643.444767	-76.044168
643.582899	-75.472249
643.721091	-74.985187
643.859342	-74.556560
643.997652	-74.176900
644.136022	-73.826120
644.274451	-73.492555
644.412940	-73.184546
644.551488	-72.906788
644.690096	-72.664579
644.828763	-72.465867
644.967490	-72.311563
645.106277	-72.205524
645.245124	-72.147034
645.384030	-72.143678
645.522997	-72.196408
645.662023	-72.307896
645.801109	-72.477850
645.940255	-72.698050
646.079460	-72.961459
646.218726	-73.251210
646.358052	-73.543163
646.497438	-73.807436
646.636884	-74.021686
646.776391	-74.171994
646.915957	-74.258319
647.055584	-74.288892
647.195271	-74.277337
647.335019	-74.222552
647.474826	-74.113833
647.614695	-73.947280
647.754623	-73.713022
647.894612	-73.429971
648.034662	-73.114045
648.174772	-72.784814
648.314943	-72.452627
648.455174	-72.116775
648.595466	-71.784129
648.735819	-71.461618
648.876233	-71.155393
649.016707	-70.877843
649.157242	-70.635439
649.297838	-70.435545
649.438495	-70.275604
649.579213	-70.156338
649.719992	-70.076121
649.860832	-70.024509
650.001733	-69.997521
650.142695	-69.986288
650.283718	-69.986253
650.424803	-69.997681
650.565949	-70.020991
650.707156	-70.060424
650.848424	-70.114008
650.989754	-70.180018
651.131145	-70.257078
651.272597	-70.340504
651.414111	-70.424559
651.555687	-70.503265
651.697324	-70.567094
651.839022	-70.603424
651.980782	-70.600242
652.122604	-70.553862
652.264488	-70.463393
652.406433	-70.332358
652.548441	-70.165972
652.690510	-69.968023
652.832640	-69.752969
652.974833	-69.530796
653.117088	-69.315491
653.259405	-69.116421
653.401784	-68.939531
653.544224	-68.784616
653.686727	-68.646034
653.829293	-68.513846
653.971920	-68.383558
654.114609	-68.253418
654.257361	-68.124511
654.400175	-68.002784
654.543052	-67.893367
654.685991	-67.797558
654.828992	-67.717854
654.972056	-67.650708
655.115183	-67.597888
655.258372	-67.563366
655.401623	-67.549696
655.544937	-67.561116
655.688314	-67.595959
655.831754	-67.644927
655.975256	-67.691416
656.118822	-67.721711
656.262450	-67.725230
656.406141	-67.699782
656.549894	-67.655715
656.693711	-67.603878
656.837591	-67.549938
656.981534	-67.491742
657.125540	-67.422728
657.269610	-67.338574
657.413742	-67.238827
657.557938	-67.133700
657.702196	-67.034526
657.846519	-66.947679
657.990904	-66.867172
658.135353	-66.781854
658.279866	-66.679035
658.424441	-66.549382
658.569081	-66.400206
658.713784	-66.244618
658.858550	-66.097025
659.003381	-65.971468
659.148274	-65.864975
659.293232	-65.772659
659.438253	-65.685596
659.583339	-65.600673
659.728488	-65.520783
659.873701	-65.458526
660.018978	-65.419500
660.164318	-65.401966
660.309723	-65.395748
660.455192	-65.385554
660.600725	-65.357854
660.746323	-65.313977
660.891984	-65.264292
661.037710	-65.225621
661.183500	-65.207671
661.329354	-65.209803
661.475272	-65.221763
661.621255	-65.227639
661.767303	-65.219527
661.913415	-65.198733
662.059591	-65.172324
662.205833	-65.148933
662.352138	-65.126568
662.498509	-65.094394
662.644944	-65.032593
662.791443	-64.929920
662.938008	-64.787295
663.084638	-64.619996
663.231332	-64.452033
663.378091	-64.299897
663.524915	-64.166492
663.671804	-64.041326
663.818759	-63.914116
663.965778	-63.780534
664.112863	-63.648610
664.260012	-63.533421
664.407227	-63.446489
664.554507	-63.389861
664.701853	-63.356450
664.849264	-63.330493
664.996740	-63.306446
665.144282	-63.281615
665.291889	-63.266812
665.439561	-63.273839
665.587300	-63.306123
665.735103	-63.359846
665.882973	-63.421634
666.030908	-63.475616
666.178909	-63.511706
666.326976	-63.531749
666.475109	-63.540613
666.623307	-63.539078
666.771571	-63.524122
666.919902	-63.479535
667.068298	-63.392974
667.216761	-63.260859
667.365289	-63.092550
667.513884	-62.908141
667.662545	-62.726530
667.811272	-62.555449
667.960065	-62.396295
668.108925	-62.242397
668.257851	-62.092359
668.406843	-61.951317
668.555902	-61.830178
668.705027	-61.738791
668.854219	-61.680440
669.003478	-61.650575
669.152803	-61.641641
669.302195	-61.644510
669.451653	-61.657733
669.601179	-61.684547
669.750771	-61.731427
669.900430	-61.802508
670.050156	-61.890118
670.199949	-61.980837
670.349808	-62.057641
670.499735	-62.109292
670.649729	-62.135155
670.799790	-62.136450
670.949918	-62.113455
671.100114	-62.062332
671.250377	-61.975558
671.400707	-61.848887
671.551104	-61.685040
671.701569	-61.494062
671.852101	-61.291056
672.002700	-61.093172
672.153368	-60.910521
672.304102	-60.746741
672.454905	-60.600468
672.605775	-60.470858
672.756713	-60.363071
672.907718	-60.282284
673.058791	-60.234330
673.209933	-60.221364
673.361142	-60.238857
673.512419	-60.278643
673.663764	-60.331234
673.815177	-60.393258
673.966658	-60.462006
674.118207	-60.539335
674.269825	-60.622140
674.421510	-60.703506
674.573264	-60.770319
674.725086	-60.813508
674.876977	-60.824274
675.028936	-60.801178
675.180963	-60.744111
675.333059	-60.655292
675.485224	-60.535864
675.637457	-60.386718
675.789758	-60.211724
675.942129	-60.018762
676.094568	-59.819211
676.247075	-59.628225
676.399652	-59.455850
676.552298	-59.311083
676.705012	-59.194497
676.857795	-59.105536
677.010648	-59.044047
677.163569	-59.012342
677.316560	-59.011813
677.469619	-59.044752
677.622748	-59.106287
677.775946	-59.189476
677.929214	-59.282646
678.082551	-59.376814
678.235957	-59.464611
678.389432	-59.542507
678.542977	-59.605286
678.696592	-59.647110
678.850276	-59.659915
679.004030	-59.637849
679.157853	-59.577142
679.311746	-59.483146
679.465709	-59.360340
679.619742	-59.216604
679.773844	-59.056422
679.928017	-58.884598
680.082259	-58.705503
680.236571	-58.528965
680.390954	-58.364673
680.545406	-58.223239
680.699929	-58.109247
680.854522	-58.026532
681.009185	-57.974127
681.163918	-57.951744
681.318722	-57.959803
681.473596	-57.998421
681.628540	-58.065427
681.783555	-58.157623
681.938641	-58.266348
682.093797	-58.380215
682.249023	-58.486237
682.404321	-58.573244
682.559689	-58.632782
682.715128	-58.658109
682.870637	-58.645783
683.026218	-58.591224
683.181869	-58.495628
683.337591	-58.363707
683.493385	-58.203435
683.649249	-58.027400
683.805185	-57.847469
683.961191	-57.673089
684.117269	-57.510968
684.273418	-57.365536
684.429639	-57.240874
684.585930	-57.142121
684.742294	-57.072221
684.898728	-57.035452
685.055234	-57.032150
685.211812	-57.061145
685.368461	-57.117262
685.525182	-57.196753
685.681975	-57.293310
685.838839	-57.402634
685.995775	-57.516138
686.152783	-57.623096
686.309863	-57.709383
686.467014	-57.761863
686.624238	-57.771694
686.781534	-57.735571
686.938902	-57.655302
687.096342	-57.535922
687.253854	-57.382722
687.411438	-57.203576
687.569095	-57.008736
687.726824	-56.811209
687.884626	-56.626253
688.042499	-56.465562
688.200446	-56.336928
688.358465	-56.243353
688.516556	-56.185432
688.674720	-56.163448
688.832957	-56.178389
688.991266	-56.230573
689.149649	-56.318583
689.308104	-56.435770
689.466632	-56.569964
689.625233	-56.706646
689.783906	-56.830965
689.942653	-56.932205
690.101473	-57.000299
690.260367	-57.025734
690.419333	-57.000248
690.578372	-56.920116
690.737485	-56.789886
690.896672	-56.621735
691.055931	-56.433837
691.215264	-56.241111
691.374671	-56.054374
691.534151	-55.878895
691.693704	-55.720910
691.853332	-55.588857
692.013033	-55.493979
692.172807	-55.442908
692.332656	-55.437843
692.492578	-55.472973
692.652575	-55.540657
692.812645	-55.635113
692.972789	-55.753638
693.133007	-55.893265
693.293300	-56.046175
693.453666	-56.194201
693.614107	-56.313947
693.774622	-56.384183
693.935211	-56.394590
694.095875	-56.346392
694.256613	-56.244301
694.417426	-56.093334
694.578313	-55.899668
694.739274	-55.675400
694.900311	-55.441823
695.061421	-55.222126
695.222607	-55.035581
695.383868	-54.891507
695.545203	-54.789899
695.706613	-54.729850
695.868098	-54.713610
696.029658	-54.748211
696.191293	-54.838369
696.353003	-54.979646
696.514789	-55.155212
696.676649	-55.342871
696.838585	-55.523683
697.000596	-55.684686
697.162682	-55.814886
697.324844	-55.898482
697.487081	-55.911841
697.649394	-55.838509
697.811782	-55.681047
697.974246	-55.465611
698.136786	-55.225988
698.299401	-54.985806
698.462092	-54.755749
698.624859	-54.540598
698.787702	-54.350667
698.950621	-54.202488
699.113616	-54.112874
699.276686	-54.089128
699.439833	-54.126198
699.603056	-54.212278
699.766355	-54.337223
699.929731	-54.498921
700.093183	-54.698489
700.256711	-54.928085
700.420315	-55.163255
700.583996	-55.364248
700.747754	-55.493695
700.911588	-55.532104
701.075499	-55.479850
701.239486	-55.346986
701.403550	-55.141411
701.567691	-54.874392
701.731909	-54.567947
701.896203	-54.257504
702.060575	-53.978415
702.225024	-53.755104
702.389549	-53.594292
702.554152	-53.494881
702.718832	-53.455519
702.883589	-53.482185
703.048424	-53.582812
703.213335	-53.759831
703.378324	-54.001780
703.543391	-54.284728
703.708535	-54.577843
703.873757	-54.854102
704.039056	-55.089511
704.204433	-55.255045
704.369887	-55.314214
704.535420	-55.237630
704.701030	-55.026166
704.866718	-54.716961
705.032484	-54.361724
705.198328	-54.003701
705.364250	-53.669544
705.530250	-53.375111
705.696328	-53.136479
705.862485	-52.971356
706.028720	-52.894578
706.195033	-52.911885
706.361424	-53.018494
706.527894	-53.203404
706.694442	-53.454030
706.861069	-53.759517
707.027775	-54.106413
707.194559	-54.468727
707.361422	-54.798145
707.528363	-55.033707
707.695384	-55.124837
707.862483	-55.054224
708.029661	-54.840825
708.196918	-54.520487
708.364254	-54.132645
708.531670	-53.718768
708.699164	-53.318723
708.866738	-52.969603
709.034391	-52.698481
709.202123	-52.518845
709.369935	-52.434623
709.537826	-52.444981
709.705796	-52.549142
709.873847	-52.746884
710.041976	-53.034989
710.210186	-53.402880
710.378475	-53.824562
710.546844	-54.255109
710.715292	-54.634690
710.883821	-54.900883
711.052429	-55.004164
711.221118	-54.917831
711.389887	-54.649346
711.558735	-54.241900
711.727664	-53.763321
711.896673	-53.281145
712.065763	-52.847817
712.234932	-52.493185
712.404183	-52.232593
712.573513	-52.072730
712.742924	-52.020559
712.912416	-52.081506
713.081988	-52.258745
713.251641	-52.547198
713.421375	-52.932983
713.591190	-53.389583
713.761085	-53.877933
713.931061	-54.343073
714.101119	-54.713420
714.271257	-54.908411
714.441476	-54.870582
714.611777	-54.600142
714.782159	-54.161621
714.952622	-53.643856
715.123166	-53.123109
715.293792	-52.649304
715.464499	-52.254182
715.635288	-51.959727
715.806158	-51.781937
715.977110	-51.731504
716.148143	-51.810478
716.319259	-52.013876
716.490456	-52.330378
716.661735	-52.744481
716.833096	-53.234403
717.004538	-53.760654
717.176063	-54.257197
717.347670	-54.629282
717.519359	-54.783441
717.691130	-54.677381
717.862984	-54.344052
718.034920	-53.865784
718.206938	-53.330469
718.379039	-52.807484
718.551222	-52.346362
718.723488	-51.981756
718.895836	-51.736420
719.068267	-51.619723
719.240781	-51.631818
719.413377	-51.767647
719.586057	-52.023564
719.758819	-52.393804
719.931664	-52.864058
720.104593	-53.397460
720.277604	-53.926288
720.450699	-54.355662
720.623876	-54.592534
720.797137	-54.582319
720.970482	-54.332051
721.143910	-53.900182
721.317421	-53.372715
721.491016	-52.834813
721.664694	-52.354393
721.838456	-51.974580
722.012302	-51.716317
722.186231	-51.584986
722.360244	-51.581186
722.534342	-51.704645
722.708523	-51.956042
722.882788	-52.327304
723.057137	-52.795481
723.231570	-53.315015
723.406088	-53.819864
723.580689	-54.224780
723.755375	-54.443583
723.930146	-54.416199
724.105000	-54.144127
724.279940	-53.695691
724.454963	-53.171847
724.630072	-52.663138
724.805265	-52.227482
724.980543	-51.894661
725.155905	-51.679906
725.331353	-51.593333
725.506885	-51.642294
725.682503	-51.828051
725.858205	-52.141368
726.033993	-52.558556
726.209865	-53.042028
726.385823	-53.538824
726.561866	-53.976739
726.737995	-54.267167
726.914209	-54.327665
727.090508	-54.136035
727.266893	-53.748381
727.443364	-53.265679
727.619920	-52.778403
727.796562	-52.347831
727.973290	-52.010106
728.150103	-51.788775
728.327003	-51.698705
728.503988	-51.745878
728.681060	-51.926481
728.858218	-52.226436
729.035461	-52.623540
729.212791	-53.083328
729.390208	-53.552078
729.567710	-53.950094
729.745299	-54.183044
