# 2022-03-21_21.47.52
# shape = sech2
# FWHM_ps = 0.1
# carrier_nm = 1542
# frep_MHz = 12126
# pow_mW = 8000
# GDD = 0.0
# propa_len = 0.10488888888888889
# untap_len = 0.01
# taper_len = 0.04488888888888889
# waist_len = 0.02
# uptap_len = 0.02
# untap_scale = 1.0
# waist_scale = 0.22631578947368425
# workingDir = NL_20110305_12 (Spirou)
# axis = slow
# window_ps = 10.0
# steps = 200
# points = 21700
# 
# wavelength [nm]	 power spectral density [dB]
600.043425	-82.479472
600.163550	-82.607649
600.283723	-82.662552
600.403943	-82.665455
600.524212	-82.650557
600.644529	-82.654722
600.764895	-82.708628
600.885308	-82.836748
601.005770	-83.045919
601.126280	-83.330845
601.246839	-83.662887
601.367446	-84.002787
601.488101	-84.299701
601.608804	-84.511189
601.729557	-84.630492
601.850357	-84.684335
601.971206	-84.712087
602.092104	-84.762835
602.213050	-84.855931
602.334045	-84.999936
602.455089	-85.169687
602.576181	-85.309260
602.697322	-85.373787
602.818511	-85.315440
602.939749	-85.113835
603.061036	-84.787993
603.182372	-84.397730
603.303757	-84.000737
603.425191	-83.643916
603.546673	-83.341408
603.668204	-83.087958
603.789785	-82.864974
603.911414	-82.643290
604.033092	-82.405462
604.154820	-82.133764
604.276596	-81.825379
604.398422	-81.489857
604.520297	-81.138869
604.642220	-80.792338
604.764193	-80.479224
604.886216	-80.221219
605.008287	-80.020219
605.130408	-79.871139
605.252578	-79.764106
605.374798	-79.675908
605.497066	-79.592490
605.619385	-79.499129
605.741752	-79.383024
605.864169	-79.254409
605.986636	-79.124783
606.109152	-79.001064
606.231718	-78.898060
606.354333	-78.833024
606.476998	-78.824893
606.599712	-78.882123
606.722476	-79.005352
606.845290	-79.186533
606.968154	-79.406701
607.091067	-79.639908
607.214030	-79.873289
607.337043	-80.101032
607.460106	-80.326342
607.583219	-80.571304
607.706381	-80.850182
607.829594	-81.189772
607.952856	-81.628214
608.076169	-82.183604
608.199531	-82.871675
608.322944	-83.710270
608.446407	-84.675701
608.569920	-85.691550
608.693483	-86.654016
608.817096	-87.410906
608.940759	-87.885643
609.064473	-88.095930
609.188237	-88.118309
609.312051	-87.997144
609.435916	-87.762810
609.559831	-87.352156
609.683796	-86.710241
609.807812	-85.869007
609.931878	-84.882791
610.055995	-83.848507
610.180162	-82.853485
610.304380	-81.962761
610.428648	-81.215903
610.552967	-80.602945
610.677337	-80.122536
610.801757	-79.741840
610.926228	-79.417551
611.050750	-79.116065
611.175323	-78.812629
611.299946	-78.488158
611.424620	-78.157142
611.549345	-77.830333
611.674121	-77.524245
611.798948	-77.257632
611.923826	-77.042556
612.048755	-76.888765
612.173734	-76.799437
612.298765	-76.771496
612.423847	-76.787729
612.548980	-76.835602
612.674165	-76.893989
612.799400	-76.959026
612.924687	-77.035977
613.050025	-77.134223
613.175414	-77.269388
613.300854	-77.452585
613.426346	-77.692610
613.551889	-78.003642
613.677484	-78.386290
613.803130	-78.841427
613.928827	-79.380797
614.054576	-80.008326
614.180377	-80.721032
614.306229	-81.525023
614.432132	-82.441963
614.558087	-83.498036
614.684094	-84.726321
614.810153	-86.160827
614.936263	-87.818505
615.062425	-89.563295
615.188639	-90.968268
615.314904	-91.357471
615.441222	-90.573138
615.567591	-89.175835
615.694012	-87.649457
615.820486	-86.194298
615.947011	-84.832948
616.073588	-83.576066
616.200217	-82.426518
616.326898	-81.384488
616.453632	-80.448932
616.580417	-79.633477
616.707255	-78.932821
616.834144	-78.354357
616.961086	-77.891272
617.088081	-77.521348
617.215127	-77.228467
617.342226	-76.982076
617.469378	-76.755691
617.596581	-76.526627
617.723837	-76.289100
617.851146	-76.057527
617.978507	-75.847086
618.105920	-75.676610
618.233386	-75.562074
618.360905	-75.516141
618.488476	-75.541099
618.616100	-75.639325
618.743777	-75.807891
618.871506	-76.032863
618.999288	-76.294955
619.127123	-76.578274
619.255011	-76.864731
619.382951	-77.158744
619.510945	-77.475179
619.638991	-77.835091
619.767090	-78.273667
619.895243	-78.823349
620.023448	-79.501734
620.151706	-80.319260
620.280017	-81.285089
620.408382	-82.409151
620.536799	-83.695407
620.665270	-85.109932
620.793794	-86.550310
620.922371	-87.783419
621.051002	-88.447752
621.179686	-88.265508
621.308423	-87.386731
621.437213	-86.145496
621.566057	-84.811463
621.694954	-83.527565
621.823905	-82.350039
621.952909	-81.307824
622.081967	-80.395752
622.211079	-79.598733
622.340244	-78.898389
622.469462	-78.274713
622.598735	-77.713558
622.728061	-77.209914
622.857441	-76.766137
622.986874	-76.385262
623.116361	-76.071267
623.245903	-75.821871
623.375498	-75.634898
623.505147	-75.506448
623.634850	-75.433352
623.764606	-75.409698
623.894417	-75.424281
624.024282	-75.469722
624.154201	-75.539892
624.284174	-75.627362
624.414202	-75.738178
624.544283	-75.880167
624.674419	-76.066158
624.804609	-76.308955
624.934853	-76.616854
625.065151	-76.993213
625.195504	-77.447230
625.325911	-77.982079
625.456373	-78.594700
625.586889	-79.287001
625.717460	-80.045989
625.848085	-80.836935
625.978764	-81.619771
626.109498	-82.325662
626.240287	-82.871224
626.371131	-83.231054
626.502029	-83.350487
626.632982	-83.260215
626.763989	-82.967905
626.895052	-82.501961
627.026169	-81.873990
627.157341	-81.132204
627.288568	-80.321706
627.419850	-79.491901
627.551187	-78.694383
627.682579	-77.965441
627.814026	-77.334647
627.945528	-76.800262
628.077085	-76.364939
628.208697	-76.016861
628.340364	-75.739471
628.472087	-75.517628
628.603865	-75.334661
628.735698	-75.191653
628.867586	-75.083688
628.999530	-75.017046
629.131529	-74.994313
629.263584	-75.025188
629.395694	-75.113760
629.527859	-75.257687
629.660080	-75.449550
629.792357	-75.675253
629.924689	-75.930835
630.057077	-76.214359
630.189520	-76.533423
630.322019	-76.902242
630.454574	-77.349681
630.587184	-77.882077
630.719851	-78.491935
630.852573	-79.131032
630.985351	-79.732486
631.118185	-80.195836
631.251075	-80.459317
631.384021	-80.493784
631.517023	-80.370290
631.650081	-80.138096
631.783195	-79.850869
631.916365	-79.524852
632.049592	-79.138933
632.182874	-78.670731
632.316213	-78.118295
632.449608	-77.497474
632.583059	-76.859907
632.716567	-76.248651
632.850131	-75.699435
632.983751	-75.228068
633.117428	-74.833841
633.251161	-74.503609
633.384951	-74.227848
633.518797	-73.994436
633.652700	-73.805897
633.786660	-73.665146
633.920676	-73.583850
634.054749	-73.569580
634.188879	-73.621234
634.323065	-73.738623
634.457308	-73.909979
634.591608	-74.124445
634.725965	-74.368188
634.860379	-74.639435
634.994850	-74.931474
635.129377	-75.256594
635.263962	-75.628946
635.398604	-76.075338
635.533303	-76.608171
635.668058	-77.221524
635.802872	-77.892484
635.937742	-78.548801
636.072669	-79.102928
636.207654	-79.451721
636.342696	-79.551021
636.477796	-79.400918
636.612953	-79.060010
636.748167	-78.571015
636.883439	-77.991371
637.018768	-77.348073
637.154155	-76.679756
637.289599	-76.028147
637.425101	-75.406878
637.560660	-74.835416
637.696277	-74.320410
637.831952	-73.856627
637.967685	-73.440941
638.103475	-73.066296
638.239324	-72.729011
638.375230	-72.424924
638.511194	-72.161464
638.647215	-71.950424
638.783295	-71.797572
638.919433	-71.715533
639.055629	-71.710224
639.191883	-71.787974
639.328195	-71.933670
639.464565	-72.141286
639.600994	-72.401455
639.737481	-72.710867
639.874025	-73.064485
640.010629	-73.463083
640.147290	-73.916429
640.284010	-74.424508
640.420789	-74.974921
640.557625	-75.549464
640.694521	-76.121719
640.831474	-76.653166
640.968487	-77.100843
641.105558	-77.427313
641.242687	-77.606581
641.379876	-77.611933
641.517123	-77.408943
641.654429	-77.001949
641.791793	-76.424763
641.929216	-75.730117
642.066699	-74.993040
642.204240	-74.271179
642.341840	-73.602226
642.479499	-72.999310
642.617217	-72.467724
642.754994	-71.994981
642.892830	-71.582858
643.030726	-71.225425
643.168680	-70.927820
643.306694	-70.690381
643.444767	-70.518066
643.582899	-70.404977
643.721091	-70.347205
643.859342	-70.337921
643.997652	-70.371218
644.136022	-70.445480
644.274451	-70.562784
644.412940	-70.736347
644.551488	-70.978809
644.690096	-71.302724
644.828763	-71.712755
644.967490	-72.210082
645.106277	-72.773899
645.245124	-73.374410
645.384030	-73.969355
645.522997	-74.519213
645.662023	-74.986027
645.801109	-75.338407
645.940255	-75.538542
646.079460	-75.530445
646.218726	-75.287768
646.358052	-74.828840
646.497438	-74.230637
646.636884	-73.582621
646.776391	-72.956022
646.915957	-72.394301
647.055584	-71.900892
647.195271	-71.459691
647.335019	-71.044321
647.474826	-70.643929
647.614695	-70.256666
647.754623	-69.894320
647.894612	-69.581217
648.034662	-69.337338
648.174772	-69.173911
648.314943	-69.091551
648.455174	-69.080336
648.595466	-69.118409
648.735819	-69.192375
648.876233	-69.298636
649.016707	-69.449517
649.157242	-69.666825
649.297838	-69.974978
649.438495	-70.382689
649.579213	-70.875323
649.719992	-71.415917
649.860832	-71.947131
650.001733	-72.404557
650.142695	-72.755376
650.283718	-73.003613
650.424803	-73.161511
650.565949	-73.230924
650.707156	-73.181475
650.848424	-72.963130
650.989754	-72.549914
651.131145	-71.986305
651.272597	-71.350247
651.414111	-70.726944
651.555687	-70.172296
651.697324	-69.701565
651.839022	-69.300944
651.980782	-68.948031
652.122604	-68.621332
652.264488	-68.313631
652.406433	-68.042471
652.548441	-67.833198
652.690510	-67.715029
652.832640	-67.697888
652.974833	-67.779703
653.117088	-67.935748
653.259405	-68.139186
653.401784	-68.359562
653.544224	-68.592678
653.686727	-68.852578
653.829293	-69.162349
653.971920	-69.542501
654.114609	-69.992639
654.257361	-70.477663
654.400175	-70.932057
654.543052	-71.284973
654.685991	-71.491437
654.828992	-71.553228
654.972056	-71.501873
655.115183	-71.362439
655.258372	-71.129258
655.401623	-70.776377
655.544937	-70.288569
655.688314	-69.693695
655.831754	-69.052946
655.975256	-68.439429
656.118822	-67.904785
656.262450	-67.468378
656.406141	-67.122042
656.549894	-66.843926
656.693711	-66.612754
656.837591	-66.419888
656.981534	-66.277138
657.125540	-66.205118
657.269610	-66.222323
657.413742	-66.337136
657.557938	-66.544356
657.702196	-66.824431
657.846519	-67.150590
657.990904	-67.503854
658.135353	-67.878256
658.279866	-68.280961
658.424441	-68.725993
658.569081	-69.217677
658.713784	-69.727752
658.858550	-70.189821
659.003381	-70.510196
659.148274	-70.607633
659.293232	-70.469807
659.438253	-70.153595
659.583339	-69.728831
659.728488	-69.243906
659.873701	-68.714914
660.018978	-68.145846
660.164318	-67.552187
660.309723	-66.967686
660.455192	-66.429553
660.600725	-65.971669
660.746323	-65.607164
660.891984	-65.336187
661.037710	-65.142104
661.183500	-65.011414
661.329354	-64.934718
661.475272	-64.911952
661.621255	-64.952672
661.767303	-65.068560
661.913415	-65.268435
662.059591	-65.553387
662.205833	-65.911232
662.352138	-66.325511
662.498509	-66.774597
662.644944	-67.242141
662.791443	-67.718580
662.938008	-68.195026
663.084638	-68.654081
663.231332	-69.046951
663.378091	-69.300431
663.524915	-69.336935
663.671804	-69.126519
663.818759	-68.710121
663.965778	-68.170008
664.112863	-67.582099
664.260012	-66.992868
664.407227	-66.421968
664.554507	-65.879791
664.701853	-65.376981
664.849264	-64.928256
664.996740	-64.547690
665.144282	-64.246256
665.291889	-64.029163
665.439561	-63.894209
665.587300	-63.836053
665.735103	-63.848770
665.882973	-63.929202
666.030908	-64.077266
666.178909	-64.295578
666.326976	-64.584011
666.475109	-64.939336
666.623307	-65.351313
666.771571	-65.806116
666.919902	-66.281747
667.068298	-66.750828
667.216761	-67.180234
667.365289	-67.527651
667.513884	-67.750900
667.662545	-67.816504
667.811272	-67.706318
667.960065	-67.425220
668.108925	-67.006161
668.257851	-66.498420
668.406843	-65.949780
668.555902	-65.401449
668.705027	-64.881833
668.854219	-64.409633
669.003478	-63.995630
669.152803	-63.648115
669.302195	-63.371225
669.451653	-63.166275
669.601179	-63.034100
669.750771	-62.975813
669.900430	-62.989472
670.050156	-63.077609
670.199949	-63.241167
670.349808	-63.479959
670.499735	-63.792132
670.649729	-64.170100
670.799790	-64.598187
670.949918	-65.056426
671.100114	-65.514143
671.250377	-65.936067
671.400707	-66.281020
671.551104	-66.502602
671.701569	-66.566486
671.852101	-66.456113
672.002700	-66.189402
672.153368	-65.801920
672.304102	-65.339860
672.454905	-64.843335
672.605775	-64.352254
672.756713	-63.892630
672.907718	-63.482346
673.058791	-63.128332
673.209933	-62.830551
673.361142	-62.591618
673.512419	-62.414194
673.663764	-62.304154
673.815177	-62.266676
673.966658	-62.306707
674.118207	-62.424034
674.269825	-62.615662
674.421510	-62.873415
674.573264	-63.184700
674.725086	-63.537957
674.876977	-63.922987
675.028936	-64.327429
675.180963	-64.729143
675.333059	-65.086355
675.485224	-65.341042
675.637457	-65.439020
675.789758	-65.358114
675.942129	-65.117069
676.094568	-64.766726
676.247075	-64.356352
676.399652	-63.923976
676.552298	-63.490176
676.705012	-63.070873
676.857795	-62.683495
677.010648	-62.348285
677.163569	-62.084777
677.316560	-61.903609
677.469619	-61.803967
677.622748	-61.772775
677.775946	-61.796177
677.929214	-61.865646
678.082551	-61.986890
678.235957	-62.168488
678.389432	-62.417864
678.542977	-62.727145
678.696592	-63.071455
678.850276	-63.411059
679.004030	-63.705718
679.157853	-63.933114
679.311746	-64.086914
679.465709	-64.163608
679.619742	-64.144690
679.773844	-64.006669
679.928017	-63.742433
680.082259	-63.383588
680.236571	-62.983593
680.390954	-62.596317
680.545406	-62.253946
680.699929	-61.967676
680.854522	-61.731627
681.009185	-61.539551
681.163918	-61.395975
681.318722	-61.315050
681.473596	-61.314615
681.628540	-61.401078
681.783555	-61.566651
681.938641	-61.789299
682.093797	-62.043300
682.249023	-62.307886
682.404321	-62.574181
682.559689	-62.836478
682.715128	-63.081084
682.870637	-63.273008
683.026218	-63.366169
683.181869	-63.326370
683.337591	-63.156599
683.493385	-62.898875
683.649249	-62.599973
683.805185	-62.290251
683.961191	-61.981791
684.117269	-61.677683
684.273418	-61.388242
684.429639	-61.133791
684.585930	-60.940649
684.742294	-60.826470
684.898728	-60.795247
685.055234	-60.837337
685.211812	-60.938095
685.368461	-61.089491
685.525182	-61.293440
685.681975	-61.558002
685.838839	-61.882066
685.995775	-62.246988
686.152783	-62.607642
686.309863	-62.905621
686.467014	-63.089611
686.624238	-63.136450
686.781534	-63.050085
686.938902	-62.844749
687.096342	-62.531742
687.253854	-62.131642
687.411438	-61.680108
687.569095	-61.226194
687.726824	-60.814342
687.884626	-60.472588
688.042499	-60.210273
688.200446	-60.025219
688.358465	-59.914931
688.516556	-59.881113
688.674720	-59.934690
688.832957	-60.085077
688.991266	-60.335608
689.149649	-60.679132
689.308104	-61.097841
689.466632	-61.567091
689.625233	-62.060034
689.783906	-62.549397
689.942653	-62.991223
690.101473	-63.317061
690.260367	-63.438946
690.419333	-63.304240
690.578372	-62.934267
690.737485	-62.415289
690.896672	-61.832748
691.055931	-61.246818
691.215264	-60.690341
691.374671	-60.185311
691.534151	-59.751938
691.693704	-59.408792
691.853332	-59.170606
692.013033	-59.043029
692.172807	-59.024885
692.332656	-59.107037
692.492578	-59.284860
692.652575	-59.560552
692.812645	-59.943733
692.972789	-60.440989
693.133007	-61.046635
693.293300	-61.732466
693.453666	-62.445421
693.614107	-63.101102
693.774622	-63.598493
693.935211	-63.830029
694.095875	-63.719415
694.256613	-63.266504
694.417426	-62.559853
694.578313	-61.738570
694.739274	-60.927110
694.900311	-60.203889
695.061421	-59.597078
695.222607	-59.109952
695.383868	-58.736238
695.545203	-58.476052
695.706613	-58.336188
695.868098	-58.326802
696.029658	-58.455084
696.191293	-58.720665
696.353003	-59.115440
696.514789	-59.628852
696.676649	-60.254319
696.838585	-60.989065
697.000596	-61.816884
697.162682	-62.682869
697.324844	-63.458808
697.487081	-63.946952
697.649394	-63.977474
697.811782	-63.551456
697.974246	-62.825934
698.136786	-61.973423
698.299401	-61.107583
698.462092	-60.295110
698.624859	-59.579044
698.787702	-58.989478
698.950621	-58.542403
699.113616	-58.241802
699.276686	-58.080614
699.439833	-58.047901
699.603056	-58.138315
699.766355	-58.355289
699.929731	-58.710849
700.093183	-59.215874
700.256711	-59.873163
700.420315	-60.669032
700.583996	-61.567059
700.747754	-62.497561
700.911588	-63.342678
701.075499	-63.922948
701.239486	-64.039195
701.403550	-63.616010
701.567691	-62.793402
701.731909	-61.809783
701.896203	-60.848319
702.060575	-60.003710
702.225024	-59.304637
702.389549	-58.751787
702.554152	-58.337446
702.718832	-58.060630
702.883589	-57.926562
703.048424	-57.945367
703.213335	-58.120413
703.378324	-58.449615
703.543391	-58.923906
703.708535	-59.535850
703.873757	-60.279096
704.039056	-61.145467
704.204433	-62.100189
704.369887	-63.031993
704.535420	-63.723531
704.701030	-63.928649
704.866718	-63.578128
705.032484	-62.840626
705.198328	-61.943768
705.364250	-61.039890
705.530250	-60.208202
705.696328	-59.490987
705.862485	-58.918567
706.028720	-58.507538
706.195033	-58.260600
706.361424	-58.165567
706.527894	-58.209572
706.694442	-58.384896
706.861069	-58.697500
707.027775	-59.159435
707.194559	-59.778611
707.361422	-60.542356
707.528363	-61.400657
707.695384	-62.254554
707.862483	-62.961444
708.029661	-63.378102
708.196918	-63.406822
708.364254	-63.040436
708.531670	-62.372724
708.699164	-61.564902
708.866738	-60.769103
709.034391	-60.080642
709.202123	-59.534334
709.369935	-59.128515
709.537826	-58.850692
709.705796	-58.698461
709.873847	-58.682230
710.041976	-58.815663
710.210186	-59.104802
710.378475	-59.539076
710.546844	-60.095148
710.715292	-60.743023
710.883821	-61.451748
711.052429	-62.171058
711.221118	-62.800438
711.389887	-63.175765
711.558735	-63.150120
711.727664	-62.731417
711.896673	-62.083385
712.065763	-61.383369
712.234932	-60.734033
712.404183	-60.178496
712.573513	-59.733409
712.742924	-59.414793
712.912416	-59.242380
713.081988	-59.231739
713.251641	-59.380912
713.421375	-59.674372
713.591190	-60.088666
713.761085	-60.606184
713.931061	-61.212513
714.101119	-61.878108
714.271257	-62.526927
714.441476	-63.023401
714.611777	-63.223077
714.782159	-63.073922
714.952622	-62.650790
715.123166	-62.078614
715.293792	-61.454563
715.464499	-60.847900
715.635288	-60.320038
715.806158	-59.921040
715.977110	-59.684325
716.148143	-59.616928
716.319259	-59.712323
716.490456	-59.956421
716.661735	-60.345132
716.833096	-60.880231
717.004538	-61.557134
717.176063	-62.337383
717.347670	-63.120166
717.519359	-63.741057
717.691130	-64.036394
717.862984	-63.938610
718.034920	-63.502436
718.206938	-62.847017
718.379039	-62.099138
718.551222	-61.375132
718.723488	-60.759840
718.895836	-60.300877
719.068267	-60.009831
719.240781	-59.885153
719.413377	-59.925076
719.586057	-60.134138
719.758819	-60.525307
719.931664	-61.112859
720.104593	-61.897098
720.277604	-62.846603
720.450699	-63.876836
720.623876	-64.836500
720.797137	-65.494474
720.970482	-65.606365
721.143910	-65.104669
721.317421	-64.188138
721.491016	-63.148796
721.664694	-62.188879
721.838456	-61.400505
722.012302	-60.804196
722.186231	-60.396902
722.360244	-60.175141
722.534342	-60.148106
722.708523	-60.331101
722.882788	-60.740172
723.057137	-61.387898
723.231570	-62.283160
723.406088	-63.426046
723.580689	-64.790461
723.755375	-66.268010
723.930146	-67.504868
724.105000	-67.871443
724.279940	-67.109677
724.454963	-65.750415
724.630072	-64.352241
724.805265	-63.151326
724.980543	-62.199864
725.155905	-61.489830
725.331353	-61.013093
725.506885	-60.768850
725.682503	-60.762838
725.858205	-60.998459
726.033993	-61.483800
726.209865	-62.231970
726.385823	-63.266785
726.561866	-64.631244
726.737995	-66.365785
726.914209	-68.385208
727.090508	-70.048653
727.266893	-70.074982
727.443364	-68.521204
727.619920	-66.659048
727.796562	-65.066646
727.973290	-63.825332
728.150103	-62.900217
728.327003	-62.268312
728.503988	-61.922410
728.681060	-61.865441
728.858218	-62.090568
729.035461	-62.588252
729.212791	-63.361584
729.390208	-64.441411
729.567710	-65.907158
