# 2022-03-22_00.44.24
# shape = sech2
# FWHM_ps = 0.1
# carrier_nm = 1542
# frep_MHz = 12126
# pow_mW = 8000
# GDD = 0.0
# propa_len = 0.13933333333333334
# untap_len = 0.01
# taper_len = 0.07933333333333334
# waist_len = 0.02
# uptap_len = 0.02
# untap_scale = 1.0
# waist_scale = 0.38421052631578956
# workingDir = NL_20110305_12 (Spirou)
# axis = slow
# window_ps = 10.0
# steps = 200
# points = 21700
# 
# wavelength [nm]	 power spectral density [dB]
600.043425	-149.156591
600.163550	-149.257582
600.283723	-149.707690
600.403943	-150.527857
600.524212	-151.754107
600.644529	-153.422756
600.764895	-155.494053
600.885308	-157.525555
601.005770	-158.159814
601.126280	-156.709403
601.246839	-154.510516
601.367446	-152.470627
601.488101	-150.760870
601.608804	-149.358616
601.729557	-148.226601
601.850357	-147.344707
601.971206	-146.709152
602.092104	-146.326753
602.213050	-146.210430
602.334045	-146.376796
602.455089	-146.845377
602.576181	-147.638697
602.697322	-148.782413
602.818511	-150.304249
602.939749	-152.229096
603.061036	-154.563268
603.182372	-157.249216
603.303757	-160.046543
603.425191	-162.303249
603.546673	-162.989990
603.668204	-161.809702
603.789785	-159.638691
603.911414	-157.319755
604.033092	-155.232218
604.154820	-153.488792
604.276596	-152.094261
604.398422	-151.014529
604.520297	-150.203183
604.642220	-149.611625
604.764193	-149.193377
604.886216	-148.906482
605.008287	-148.715058
605.130408	-148.590203
605.252578	-148.510339
605.374798	-148.461327
605.497066	-148.436631
605.619385	-148.437455
605.741752	-148.472556
605.864169	-148.557577
605.986636	-148.714121
606.109152	-148.968862
606.231718	-149.352240
606.354333	-149.894633
606.476998	-150.614994
606.599712	-151.491942
606.722476	-152.404327
606.845290	-153.066972
606.968154	-153.134506
607.091067	-152.571383
607.214030	-151.738126
607.337043	-151.029133
607.460106	-150.681705
607.583219	-150.818239
607.706381	-151.507100
607.829594	-152.757984
607.952856	-154.358704
608.076169	-155.434962
608.199531	-154.850541
608.322944	-153.178458
608.446407	-151.568162
608.569920	-150.398350
608.693483	-149.631500
608.817096	-149.083338
608.940759	-148.514016
609.064473	-147.738966
609.188237	-146.747080
609.312051	-145.679220
609.435916	-144.698850
609.559831	-143.913311
609.683796	-143.371285
609.807812	-143.084759
609.931878	-143.047568
610.055995	-143.246661
610.180162	-143.668659
610.304380	-144.304193
610.428648	-145.152037
610.552967	-146.225959
610.677337	-147.569792
610.801757	-149.292178
610.926228	-151.652509
611.050750	-155.338463
611.175323	-163.130542
611.299946	-166.012113
611.424620	-155.066979
611.549345	-150.087552
611.674121	-146.900819
611.798948	-144.673835
611.923826	-143.100564
612.048755	-142.033560
612.173734	-141.386362
612.298765	-141.096851
612.423847	-141.108895
612.548980	-141.360616
612.674165	-141.777365
612.799400	-142.272879
612.924687	-142.763882
613.050025	-143.195534
613.175414	-143.560418
613.300854	-143.894357
613.426346	-144.256198
613.551889	-144.713433
613.677484	-145.344290
613.803130	-146.252636
613.928827	-147.592813
614.054576	-149.617298
614.180377	-152.787717
614.306229	-157.758020
614.432132	-159.201898
614.558087	-153.752304
614.684094	-149.932320
614.810153	-147.531909
614.936263	-146.025131
615.062425	-145.136047
615.188639	-144.697274
615.314904	-144.586292
615.441222	-144.703032
615.567591	-144.969775
615.694012	-145.341743
615.820486	-145.813453
615.947011	-146.408663
616.073588	-147.154872
616.200217	-148.051996
616.326898	-149.043950
616.453632	-150.008378
616.580417	-150.799631
616.707255	-151.354618
616.834144	-151.761811
616.961086	-152.204367
617.088081	-152.867553
617.215127	-153.914789
617.342226	-155.530342
617.469378	-158.019921
617.596581	-162.086417
617.723837	-170.105808
617.851146	-171.664342
617.978507	-163.875757
618.105920	-160.709721
618.233386	-159.672122
618.360905	-160.346347
618.488476	-163.271912
618.616100	-172.413713
618.743777	-169.643424
618.871506	-160.384647
618.999288	-156.046485
619.127123	-153.411825
619.255011	-151.697205
619.382951	-150.550793
619.510945	-149.763938
619.638991	-149.201287
619.767090	-148.776765
619.895243	-148.428143
620.023448	-148.084228
620.151706	-147.650535
620.280017	-147.045848
620.408382	-146.271246
620.536799	-145.428718
620.665270	-144.660875
620.793794	-144.083022
620.922371	-143.755207
621.051002	-143.679292
621.179686	-143.798536
621.308423	-143.999769
621.437213	-144.142532
621.566057	-144.133802
621.694954	-143.996920
621.823905	-143.851336
621.952909	-143.829151
622.081967	-144.016299
622.211079	-144.437851
622.340244	-145.061066
622.469462	-145.800647
622.598735	-146.528143
622.728061	-147.088115
622.857441	-147.315020
622.986874	-147.067238
623.116361	-146.316534
623.245903	-145.214876
623.375498	-144.012603
623.505147	-142.925730
623.634850	-142.088530
623.764606	-141.572169
623.894417	-141.414485
624.024282	-141.641778
624.154201	-142.283629
624.284174	-143.386231
624.414202	-145.031162
624.544283	-147.371885
624.674419	-150.715496
624.804609	-155.631268
624.934853	-160.338305
625.065151	-156.525139
625.195504	-152.535451
625.325911	-149.946065
625.456373	-148.090529
625.586889	-146.571392
625.717460	-145.185320
625.848085	-143.868065
625.978764	-142.647221
626.109498	-141.589086
626.240287	-140.761365
626.371131	-140.219424
626.502029	-140.006671
626.632982	-140.158503
626.763989	-140.703166
626.895052	-141.652633
627.026169	-142.968323
627.157341	-144.474379
627.288568	-145.747866
627.419850	-146.301369
627.551187	-146.171936
627.682579	-145.843373
627.814026	-145.622490
627.945528	-145.477562
628.077085	-145.203640
628.208697	-144.711063
628.340364	-144.201529
628.472087	-144.039163
628.603865	-144.611761
628.735698	-146.445639
628.867586	-150.901094
628.999530	-169.291579
629.131529	-150.428449
629.263584	-143.835784
629.395694	-140.222199
629.527859	-137.986961
629.660080	-136.643756
629.792357	-135.981564
629.924689	-135.888168
630.057077	-136.285712
630.189520	-137.087539
630.322019	-138.149569
630.454574	-139.229767
630.587184	-140.050498
630.719851	-140.526944
630.852573	-140.883718
630.985351	-141.465390
631.118185	-142.563977
631.251075	-144.412909
631.384021	-147.151080
631.517023	-150.028908
631.650081	-149.865878
631.783195	-147.394734
631.916365	-145.484806
632.049592	-144.599310
632.182874	-144.684183
632.316213	-145.701264
632.449608	-147.535281
632.583059	-149.251479
632.716567	-148.584387
632.850131	-146.156635
632.983751	-143.988698
633.117428	-142.530730
633.251161	-141.687489
633.384951	-141.256317
633.518797	-140.967838
633.652700	-140.525300
633.786660	-139.759099
633.920676	-138.744046
634.054749	-137.687120
634.188879	-136.759027
634.323065	-136.047096
634.457308	-135.581718
634.591608	-135.368487
634.725965	-135.408890
634.860379	-135.711710
634.994850	-136.298845
635.129377	-137.207697
635.263962	-138.490227
635.398604	-140.202594
635.533303	-142.354400
635.668058	-144.704826
635.802872	-146.330048
635.937742	-146.261149
636.072669	-145.271501
636.207654	-144.473524
636.342696	-144.265690
636.477796	-144.736537
636.612953	-145.919624
636.748167	-147.853793
636.883439	-150.557703
637.018768	-153.865557
637.154155	-156.887229
637.289599	-157.488683
637.425101	-154.853786
637.560660	-151.060144
637.696277	-147.618178
637.831952	-144.932197
637.967685	-143.040463
638.103475	-141.922608
638.239324	-141.588020
638.375230	-142.117013
638.511194	-143.725690
638.647215	-146.940102
638.783295	-152.724504
638.919433	-152.608893
639.055629	-146.697290
639.191883	-143.361708
639.328195	-141.632909
639.464565	-140.966401
639.600994	-141.067001
639.737481	-141.617563
639.874025	-142.075582
640.010629	-141.826107
640.147290	-140.874192
640.284010	-139.773877
640.420789	-138.924165
640.557625	-138.436163
640.694521	-138.265486
640.831474	-138.300868
640.968487	-138.421912
641.105558	-138.555779
641.242687	-138.704699
641.379876	-138.908728
641.517123	-139.167359
641.654429	-139.377907
641.791793	-139.355879
641.929216	-138.983690
642.066699	-138.351013
642.204240	-137.682134
642.341840	-137.176565
642.479499	-136.953795
642.617217	-137.078235
642.754994	-137.596708
642.892830	-138.567059
643.030726	-140.074180
643.168680	-142.199142
643.306694	-144.692973
643.444767	-145.748310
643.582899	-143.755516
643.721091	-140.974015
643.859342	-138.665711
643.997652	-136.879047
644.136022	-135.464954
644.274451	-134.285148
644.412940	-133.245273
644.551488	-132.303031
644.690096	-131.462888
644.828763	-130.759051
644.967490	-130.236430
645.106277	-129.938309
645.245124	-129.901977
645.384030	-130.159244
645.522997	-130.738708
645.662023	-131.668386
645.801109	-132.979240
645.940255	-134.712983
646.079460	-136.943961
646.218726	-139.842026
646.358052	-143.860117
646.497438	-150.315212
646.636884	-154.319072
646.776391	-146.856631
646.915957	-142.618511
647.055584	-140.142290
647.195271	-138.702644
647.335019	-137.996235
647.474826	-137.832113
647.614695	-138.012300
647.754623	-138.275555
647.894612	-138.338003
648.034662	-138.055307
648.174772	-137.508338
648.314943	-136.867094
648.455174	-136.248195
648.595466	-135.705095
648.735819	-135.275509
648.876233	-135.011547
649.016707	-134.979686
649.157242	-135.248787
649.297838	-135.883251
649.438495	-136.944633
649.579213	-138.490573
649.719992	-140.518159
649.860832	-142.621530
650.001733	-143.239389
650.142695	-141.477654
650.283718	-139.023598
650.424803	-136.909381
650.565949	-135.272154
650.707156	-134.034674
650.848424	-133.088763
650.989754	-132.331400
651.131145	-131.683373
651.272597	-131.106861
651.414111	-130.610016
651.555687	-130.232105
651.697324	-130.020131
651.839022	-130.011372
651.980782	-130.225933
652.122604	-130.665257
652.264488	-131.311327
652.406433	-132.123150
652.548441	-133.029247
652.690510	-133.918652
652.832640	-134.642452
652.974833	-135.051115
653.117088	-135.076923
653.259405	-134.798527
653.401784	-134.409509
653.544224	-134.131865
653.686727	-134.165459
653.829293	-134.692954
653.971920	-135.922468
654.114609	-138.179968
654.257361	-142.164693
654.400175	-149.506035
654.543052	-148.436408
654.685991	-142.415417
654.828992	-139.462065
654.972056	-138.006144
655.115183	-137.319845
655.258372	-136.932988
655.401623	-136.558635
655.544937	-136.176875
655.688314	-135.944128
655.831754	-135.960223
655.975256	-136.090686
656.118822	-135.936947
656.262450	-135.184883
656.406141	-134.046214
656.549894	-132.978336
656.693711	-132.261118
656.837591	-131.965366
656.981534	-132.034890
657.125540	-132.341093
657.269610	-132.747665
657.413742	-133.214983
657.557938	-133.872568
657.702196	-134.985713
657.846519	-136.862365
657.990904	-139.495318
658.135353	-140.495217
658.279866	-137.507736
658.424441	-134.205447
658.569081	-131.851939
658.713784	-130.336642
658.858550	-129.472868
659.003381	-129.111849
659.148274	-129.121116
659.293232	-129.364382
659.438253	-129.704861
659.583339	-130.040947
659.728488	-130.350832
659.873701	-130.695599
660.018978	-131.172224
660.164318	-131.861587
660.309723	-132.798407
660.455192	-133.945565
660.600725	-135.134477
660.746323	-135.969662
660.891984	-135.932490
661.037710	-134.934989
661.183500	-133.452982
661.329354	-131.951104
661.475272	-130.643025
661.621255	-129.578226
661.767303	-128.729740
661.913415	-128.039006
662.059591	-127.446111
662.205833	-126.917347
662.352138	-126.461835
662.498509	-126.126794
662.644944	-125.977191
662.791443	-126.075708
662.938008	-126.471727
663.084638	-127.197282
663.231332	-128.264274
663.378091	-129.658117
663.524915	-131.325131
663.671804	-133.155248
663.818759	-134.972845
663.965778	-136.564251
664.112863	-137.759914
664.260012	-138.513777
664.407227	-138.850888
664.554507	-138.651434
664.701853	-137.579337
664.849264	-135.587193
664.996740	-133.191472
665.144282	-130.912873
665.291889	-128.991006
665.439561	-127.486078
665.587300	-126.386193
665.735103	-125.654677
665.882973	-125.246960
666.030908	-125.116726
666.178909	-125.219768
666.326976	-125.519276
666.475109	-125.994101
666.623307	-126.649564
666.771571	-127.528919
666.919902	-128.725244
667.068298	-130.401778
667.216761	-132.851012
667.365289	-136.710329
667.513884	-144.069112
667.662545	-149.024783
667.811272	-139.512145
667.960065	-135.435361
668.108925	-133.227439
668.257851	-131.966040
668.406843	-131.252433
668.555902	-130.840260
668.705027	-130.545508
668.854219	-130.231392
669.003478	-129.819937
669.152803	-129.304616
669.302195	-128.744310
669.451653	-128.234976
669.601179	-127.875018
669.750771	-127.740912
669.900430	-127.874391
670.050156	-128.271696
670.199949	-128.866783
670.349808	-129.518181
670.499735	-130.047189
670.649729	-130.367966
670.799790	-130.597278
670.949918	-130.991495
671.100114	-131.813926
671.250377	-133.264384
671.400707	-135.334145
671.551104	-137.073039
671.701569	-136.445799
671.852101	-134.348636
672.002700	-132.658953
672.153368	-131.839405
672.304102	-131.922075
672.454905	-132.931275
672.605775	-134.971125
672.756713	-138.255008
672.907718	-142.920656
673.058791	-146.898970
673.209933	-146.777622
673.361142	-147.278078
673.512419	-151.559787
673.663764	-156.656147
673.815177	-147.559233
673.966658	-143.713690
674.118207	-143.051220
674.269825	-145.721970
674.421510	-150.441649
674.573264	-141.281188
674.725086	-135.226099
674.876977	-131.521115
675.028936	-129.137664
675.180963	-127.643051
675.333059	-126.789385
675.485224	-126.383295
675.637457	-126.245396
675.789758	-126.230948
675.942129	-126.290566
676.094568	-126.500051
676.247075	-127.011941
676.399652	-127.967648
676.552298	-129.372742
676.705012	-130.786656
676.857795	-131.076654
677.010648	-129.906426
677.163569	-128.423432
677.316560	-127.399254
677.469619	-127.015481
677.622748	-127.249639
677.775946	-127.989298
677.929214	-128.990951
678.082551	-129.831856
678.235957	-130.129268
678.389432	-129.953213
678.542977	-129.681254
678.696592	-129.545785
678.850276	-129.505760
679.004030	-129.337677
679.157853	-128.852710
679.311746	-128.107641
679.465709	-127.339003
679.619742	-126.756732
679.773844	-126.464477
679.928017	-126.478886
680.082259	-126.757465
680.236571	-127.211922
680.390954	-127.718478
680.545406	-128.146483
680.699929	-128.414349
680.854522	-128.537476
681.009185	-128.615149
681.163918	-128.765337
681.318722	-129.059066
681.473596	-129.471440
681.628540	-129.847434
681.783555	-129.940544
681.938641	-129.605276
682.093797	-128.960683
682.249023	-128.262103
682.404321	-127.696033
682.559689	-127.322546
682.715128	-127.096106
682.870637	-126.891293
683.026218	-126.546080
683.181869	-125.949528
683.337591	-125.118318
683.493385	-124.168228
683.649249	-123.219277
683.805185	-122.339118
683.961191	-121.544004
684.117269	-120.825522
684.273418	-120.178552
684.429639	-119.617216
684.585930	-119.174373
684.742294	-118.890245
684.898728	-118.799776
685.055234	-118.923764
685.211812	-119.263048
685.368461	-119.793316
685.525182	-120.460963
685.681975	-121.186376
685.838839	-121.884699
685.995775	-122.501185
686.152783	-123.028616
686.309863	-123.472799
686.467014	-123.782573
686.624238	-123.813650
686.781534	-123.410508
686.938902	-122.572144
687.096342	-121.479015
687.253854	-120.347112
687.411438	-119.323117
687.569095	-118.480424
687.726824	-117.847003
687.884626	-117.425494
688.042499	-117.201766
688.200446	-117.148068
688.358465	-117.227488
688.516556	-117.404400
688.674720	-117.660009
688.832957	-118.004666
688.991266	-118.477536
689.149649	-119.133806
689.308104	-120.029087
689.466632	-121.209612
689.625233	-122.708962
689.783906	-124.541628
689.942653	-126.659297
690.101473	-128.777827
690.260367	-130.088509
690.419333	-129.845990
690.578372	-128.616542
690.737485	-127.252864
690.896672	-126.027994
691.055931	-124.913435
691.215264	-123.860617
691.374671	-122.909350
691.534151	-122.169082
691.693704	-121.754452
691.853332	-121.744558
692.013033	-122.165859
692.172807	-122.961504
692.332656	-123.909303
692.492578	-124.536264
692.652575	-124.359967
692.812645	-123.447598
692.972789	-122.267741
693.133007	-121.158430
693.293300	-120.249963
693.453666	-119.577653
693.614107	-119.151379
693.774622	-118.979917
693.935211	-119.078569
694.095875	-119.474873
694.256613	-120.217318
694.417426	-121.388293
694.578313	-123.122225
694.739274	-125.615593
694.900311	-128.915673
695.061421	-131.001949
695.222607	-128.579525
695.383868	-125.321223
695.545203	-122.927444
695.706613	-121.326422
695.868098	-120.351871
696.029658	-119.899880
696.191293	-119.908736
696.353003	-120.329815
696.514789	-121.090227
696.676649	-122.031009
696.838585	-122.838415
697.000596	-123.131432
697.162682	-122.830600
697.324844	-122.280868
697.487081	-121.896874
697.649394	-121.959016
697.811782	-122.671093
697.974246	-124.288457
698.136786	-127.346321
698.299401	-133.520538
698.462092	-139.133968
698.624859	-129.365662
698.787702	-124.597891
698.950621	-121.733334
699.113616	-119.821126
699.276686	-118.492231
699.439833	-117.576558
699.603056	-117.001440
699.766355	-116.753082
699.929731	-116.855902
700.093183	-117.359832
700.256711	-118.332767
700.420315	-119.850700
700.583996	-121.950356
700.747754	-124.394104
700.911588	-126.036181
701.075499	-125.602800
701.239486	-124.159327
701.403550	-122.902339
701.567691	-122.049723
701.731909	-121.496085
701.896203	-121.128895
702.060575	-120.926526
702.225024	-120.952790
702.389549	-121.275260
702.554152	-121.815491
702.718832	-122.108205
702.883589	-121.379163
703.048424	-119.602382
703.213335	-117.576262
703.378324	-115.849900
703.543391	-114.588622
703.708535	-113.800667
703.873757	-113.447743
704.039056	-113.479787
704.204433	-113.849953
704.369887	-114.532729
704.535420	-115.551503
704.701030	-117.013386
704.866718	-119.160102
705.032484	-122.513125
705.198328	-128.595022
705.364250	-144.274080
705.530250	-129.258296
705.696328	-124.520839
705.862485	-122.600333
706.028720	-122.202223
706.195033	-122.998016
706.361424	-125.007576
706.527894	-128.639985
706.694442	-135.433580
706.861069	-140.145008
707.027775	-131.832033
707.194559	-127.703232
707.361422	-125.324663
707.528363	-123.915177
707.695384	-123.244137
707.862483	-123.283448
708.029661	-124.122821
708.196918	-125.973865
708.364254	-129.123031
708.531670	-132.182741
708.699164	-129.541144
708.866738	-125.582451
709.034391	-122.872322
709.202123	-121.159797
709.369935	-120.170852
709.537826	-119.765714
709.705796	-119.921493
709.873847	-120.743049
710.041976	-122.533143
710.210186	-126.099273
710.378475	-134.780468
710.546844	-132.491086
710.715292	-123.991190
710.883821	-119.753037
711.052429	-117.075814
711.221118	-115.211048
711.389887	-113.822188
711.558735	-112.733643
711.727664	-111.867769
711.896673	-111.212299
712.065763	-110.787756
712.234932	-110.618764
712.404183	-110.714825
712.573513	-111.059297
712.742924	-111.605342
712.912416	-112.285266
713.081988	-113.043044
713.251641	-113.878783
713.421375	-114.855499
713.591190	-116.012634
713.761085	-117.148078
713.931061	-117.601969
714.101119	-116.873877
714.271257	-115.535066
714.441476	-114.369738
714.611777	-113.722221
714.782159	-113.679990
714.952622	-114.253055
715.123166	-115.444470
715.293792	-117.297364
715.464499	-119.988592
715.635288	-123.961422
715.806158	-127.625048
715.977110	-123.056022
716.148143	-117.996380
716.319259	-114.500996
716.490456	-112.094034
716.661735	-110.502123
716.833096	-109.584816
717.004538	-109.262890
717.176063	-109.487291
717.347670	-110.227380
717.519359	-111.476143
717.691130	-113.287094
717.862984	-115.886813
718.034920	-120.044905
718.206938	-129.646690
718.379039	-128.231249
718.551222	-118.999935
718.723488	-114.794555
718.895836	-112.333193
719.068267	-110.898138
719.240781	-110.213432
719.413377	-110.142919
719.586057	-110.609333
719.758819	-111.567726
719.931664	-113.002824
720.104593	-114.952830
720.277604	-117.583826
720.450699	-121.359633
720.623876	-126.705074
720.797137	-125.387843
720.970482	-119.741146
721.143910	-116.001160
721.317421	-113.593422
721.491016	-112.129409
721.664694	-111.444500
721.838456	-111.482027
722.012302	-112.254777
722.186231	-113.841652
722.360244	-116.379337
722.534342	-119.722711
722.708523	-121.117166
