# 2022-03-21_22.59.43
# shape = sech2
# FWHM_ps = 0.1
# carrier_nm = 1542
# frep_MHz = 12126
# pow_mW = 8000
# GDD = 0.0
# propa_len = 0.11866666666666668
# untap_len = 0.01
# taper_len = 0.05866666666666667
# waist_len = 0.02
# uptap_len = 0.02
# untap_scale = 1.0
# waist_scale = 0.33684210526315794
# workingDir = NL_20110305_12 (Spirou)
# axis = slow
# window_ps = 10.0
# steps = 200
# points = 21700
# 
# wavelength [nm]	 power spectral density [dB]
600.043425	-118.120711
600.163550	-118.185548
600.283723	-118.253234
600.403943	-118.321912
600.524212	-118.390283
600.644529	-118.455932
600.764895	-118.515498
600.885308	-118.565069
601.005770	-118.601046
601.126280	-118.621385
601.246839	-118.626898
601.367446	-118.621972
601.488101	-118.614656
601.608804	-118.616117
601.729557	-118.639361
601.850357	-118.697604
601.971206	-118.803035
602.092104	-118.966071
602.213050	-119.194904
602.334045	-119.495395
602.455089	-119.871322
602.576181	-120.324988
602.697322	-120.858045
602.818511	-121.472372
602.939749	-122.171113
603.061036	-122.959935
603.182372	-123.848629
603.303757	-124.853028
603.425191	-125.997171
603.546673	-127.316235
603.668204	-128.860813
603.789785	-130.701488
603.911414	-132.926577
604.033092	-135.583912
604.154820	-138.304636
604.276596	-139.337946
604.398422	-137.662570
604.520297	-135.260915
604.642220	-133.184451
604.764193	-131.519369
604.886216	-130.174088
605.008287	-129.056468
605.130408	-128.096582
605.252578	-127.246731
605.374798	-126.478761
605.497066	-125.780473
605.619385	-125.151372
605.741752	-124.597380
605.864169	-124.126627
605.986636	-123.746792
606.109152	-123.462752
606.231718	-123.274815
606.354333	-123.178024
606.476998	-123.162052
606.599712	-123.210919
606.722476	-123.303355
606.845290	-123.414606
606.968154	-123.519838
607.091067	-123.598139
607.214030	-123.635694
607.337043	-123.627180
607.460106	-123.573950
607.583219	-123.479978
607.706381	-123.348047
607.829594	-123.178068
607.952856	-122.968283
608.076169	-122.718751
608.199531	-122.435151
608.322944	-122.130674
608.446407	-121.825107
608.569920	-121.542252
608.693483	-121.306666
608.817096	-121.141018
608.940759	-121.064837
609.064473	-121.094146
609.188237	-121.241592
609.312051	-121.517033
609.435916	-121.928104
609.559831	-122.480275
609.683796	-123.176632
609.807812	-124.017153
609.931878	-124.997328
610.055995	-126.105935
610.180162	-127.320663
610.304380	-128.601329
610.428648	-129.882219
610.552967	-131.067093
610.677337	-132.039200
610.801757	-132.700792
610.926228	-133.028961
611.050750	-133.096769
611.175323	-133.035850
611.299946	-132.984046
611.424620	-133.058966
611.549345	-133.359242
611.674121	-133.980859
611.798948	-135.041899
611.923826	-136.725501
612.048755	-139.381679
612.173734	-143.800359
612.298765	-149.825939
612.423847	-144.632991
612.548980	-139.287376
612.674165	-135.933292
612.799400	-133.643191
612.924687	-132.006928
613.050025	-130.821036
613.175414	-129.968166
613.300854	-129.372978
613.426346	-128.983456
613.551889	-128.763052
613.677484	-128.688155
613.803130	-128.746157
613.928827	-128.933807
614.054576	-129.255550
614.180377	-129.719756
614.306229	-130.331457
614.432132	-131.079909
614.558087	-131.919349
614.684094	-132.740988
614.810153	-133.360523
614.936263	-133.582933
615.062425	-133.350912
615.188639	-132.803239
615.314904	-132.151408
615.441222	-131.553512
615.567591	-131.089147
615.694012	-130.783275
615.820486	-130.630247
615.947011	-130.607949
616.073588	-130.686456
616.200217	-130.835417
616.326898	-131.030914
616.453632	-131.258863
616.580417	-131.513643
616.707255	-131.793007
616.834144	-132.091432
616.961086	-132.395388
617.088081	-132.683844
617.215127	-132.935280
617.342226	-133.144255
617.469378	-133.338063
617.596581	-133.577184
617.723837	-133.941005
617.851146	-134.509914
617.978507	-135.342430
618.105920	-136.416812
618.233386	-137.467866
618.360905	-137.784354
618.488476	-136.755459
618.616100	-134.850922
618.743777	-132.841110
618.871506	-131.060799
618.999288	-129.567636
619.127123	-128.327547
619.255011	-127.282866
619.382951	-126.372761
619.510945	-125.542110
619.638991	-124.748049
619.767090	-123.964961
619.895243	-123.185416
620.023448	-122.415653
620.151706	-121.667953
620.280017	-120.953496
620.408382	-120.278513
620.536799	-119.643137
620.665270	-119.042916
620.793794	-118.471934
620.922371	-117.925887
621.051002	-117.404666
621.179686	-116.913327
621.308423	-116.460931
621.437213	-116.058574
621.566057	-115.717292
621.694954	-115.445931
621.823905	-115.249869
621.952909	-115.130387
622.081967	-115.084364
622.211079	-115.104490
622.340244	-115.179745
622.469462	-115.296033
622.598735	-115.436969
622.728061	-115.584195
622.857441	-115.716840
622.986874	-115.810722
623.116361	-115.838086
623.245903	-115.769759
623.375498	-115.581313
623.505147	-115.261873
623.634850	-114.820990
623.764606	-114.288377
623.894417	-113.706158
624.024282	-113.118485
624.154201	-112.563749
624.284174	-112.070972
624.414202	-111.659389
624.544283	-111.339786
624.674419	-111.116175
624.804609	-110.987265
624.934853	-110.947500
625.065151	-110.987860
625.195504	-111.096640
625.325911	-111.260343
625.456373	-111.464626
625.586889	-111.695103
625.717460	-111.938037
625.848085	-112.180920
625.978764	-112.413063
626.109498	-112.625696
626.240287	-112.812279
626.371131	-112.969755
626.502029	-113.100115
626.632982	-113.211727
626.763989	-113.320026
626.895052	-113.446828
627.026169	-113.618425
627.157341	-113.863630
627.288568	-114.211936
627.419850	-114.692179
627.551187	-115.331526
627.682579	-116.152921
627.814026	-117.167296
627.945528	-118.350891
628.077085	-119.588522
628.208697	-120.578662
628.340364	-120.853695
628.472087	-120.196176
628.603865	-118.928449
628.735698	-117.495763
628.867586	-116.144587
628.999530	-114.959727
629.131529	-113.954754
629.263584	-113.118871
629.395694	-112.434817
629.527859	-111.884531
629.660080	-111.450306
629.792357	-111.114280
629.924689	-110.857614
630.057077	-110.660071
630.189520	-110.500225
630.322019	-110.356537
630.454574	-110.209588
630.587184	-110.045237
630.719851	-109.857386
630.852573	-109.649015
630.985351	-109.431294
631.118185	-109.221196
631.251075	-109.038559
631.384021	-108.903565
631.517023	-108.835200
631.650081	-108.850856
631.783195	-108.966636
631.916365	-109.197985
632.049592	-109.560679
632.182874	-110.071857
632.316213	-110.750804
632.449608	-111.619356
632.583059	-112.701053
632.716567	-114.015310
632.850131	-115.555739
632.983751	-117.223971
633.117428	-118.682303
633.251161	-119.298139
633.384951	-118.742420
633.518797	-117.494289
633.652700	-116.148186
633.786660	-114.979496
633.920676	-114.063310
634.054749	-113.404796
634.188879	-112.991644
634.323065	-112.809655
634.457308	-112.844933
634.591608	-113.079644
634.725965	-113.481250
634.860379	-113.983169
634.994850	-114.458563
635.129377	-114.712543
635.263962	-114.552766
635.398604	-113.931906
635.533303	-112.989772
635.668058	-111.929480
635.802872	-110.903091
635.937742	-109.991790
636.072669	-109.228743
636.207654	-108.621673
636.342696	-108.166333
636.477796	-107.853462
636.612953	-107.672028
636.748167	-107.610574
636.883439	-107.657686
637.018768	-107.801864
637.154155	-108.030651
637.289599	-108.329388
637.425101	-108.679865
637.560660	-109.059234
637.696277	-109.440168
637.831952	-109.793780
637.967685	-110.096132
638.103475	-110.336789
638.239324	-110.525074
638.375230	-110.690299
638.511194	-110.876262
638.647215	-111.133443
638.783295	-111.513354
638.919433	-112.067260
639.055629	-112.849275
639.191883	-113.923334
639.328195	-115.374758
639.464565	-117.326561
639.600994	-119.939538
639.737481	-123.159595
639.874025	-124.962501
640.010629	-122.625148
640.147290	-119.374552
640.284010	-116.769404
640.420789	-114.776212
640.557625	-113.234430
640.694521	-112.031298
640.831474	-111.095664
640.968487	-110.383094
641.105558	-109.865987
641.242687	-109.527229
641.379876	-109.355900
641.517123	-109.344120
641.654429	-109.484622
641.791793	-109.768229
641.929216	-110.181014
642.066699	-110.701184
642.204240	-111.295593
642.341840	-111.917850
642.479499	-112.511466
642.617217	-113.021081
642.754994	-113.410912
642.892830	-113.680199
643.030726	-113.863484
643.168680	-114.016069
643.306694	-114.196277
643.444767	-114.455044
643.582899	-114.834263
643.721091	-115.370504
643.859342	-116.100352
643.997652	-117.065057
644.136022	-118.311883
644.274451	-119.880963
644.412940	-121.731523
644.551488	-123.471919
644.690096	-124.010530
644.828763	-122.749911
644.967490	-120.731965
645.106277	-118.835109
645.245124	-117.295798
645.384030	-116.124083
645.522997	-115.287173
645.662023	-114.754504
645.801109	-114.506744
645.940255	-114.537289
646.079460	-114.853719
646.218726	-115.481761
646.358052	-116.473872
646.497438	-117.927602
646.636884	-120.027064
646.776391	-123.137356
646.915957	-127.828569
647.055584	-130.367766
647.195271	-125.209385
647.335019	-120.984112
647.474826	-118.094565
647.614695	-116.016945
647.754623	-114.477123
647.894612	-113.328768
648.034662	-112.486415
648.174772	-111.895954
648.314943	-111.520482
648.455174	-111.332748
648.595466	-111.310856
648.735819	-111.435501
648.876233	-111.687791
649.016707	-112.047425
649.157242	-112.491159
649.297838	-112.991372
649.438495	-113.515229
649.579213	-114.024930
649.719992	-114.479821
649.860832	-114.841508
650.001733	-115.081187
650.142695	-115.186523
650.283718	-115.164504
650.424803	-115.037915
650.565949	-114.838265
650.707156	-114.599321
650.848424	-114.353462
650.989754	-114.130400
651.131145	-113.958051
651.272597	-113.864574
651.414111	-113.879904
651.555687	-114.036788
651.697324	-114.370855
651.839022	-114.917668
651.980782	-115.702846
652.122604	-116.710791
652.264488	-117.795994
652.406433	-118.526593
652.548441	-118.280076
652.690510	-116.986983
652.832640	-115.243936
652.974833	-113.543674
653.117088	-112.074002
653.259405	-110.870267
653.401784	-109.917988
653.544224	-109.191020
653.686727	-108.663821
653.829293	-108.315651
653.971920	-108.132214
654.114609	-108.106245
654.257361	-108.237635
654.400175	-108.533117
654.543052	-109.004775
654.685991	-109.667709
654.828992	-110.535870
654.972056	-111.613254
655.115183	-112.876941
655.258372	-114.246403
655.401623	-115.549034
655.544937	-116.546502
655.688314	-117.103727
655.831754	-117.351735
655.975256	-117.590412
656.118822	-118.104034
656.262450	-119.122859
656.406141	-120.891523
656.549894	-123.762916
656.693711	-127.769743
656.837591	-127.730242
656.981534	-122.987571
657.125540	-119.213295
657.269610	-116.501762
657.413742	-114.488373
657.557938	-112.963222
657.702196	-111.814189
657.846519	-110.983276
657.990904	-110.444562
658.135353	-110.192395
658.279866	-110.235105
658.424441	-110.591565
658.569081	-111.289072
658.713784	-112.359370
658.858550	-113.820924
659.003381	-115.610479
659.148274	-117.371384
659.293232	-118.218689
659.438253	-117.585353
659.583339	-116.196205
659.728488	-114.840859
659.873701	-113.785240
660.018978	-113.052093
660.164318	-112.604824
660.309723	-112.407007
660.455192	-112.440995
660.600725	-112.713963
660.746323	-113.257999
660.891984	-114.124837
661.037710	-115.364763
661.183500	-116.942963
661.329354	-118.447433
661.475272	-118.734207
661.621255	-117.258185
661.767303	-115.136890
661.913415	-113.223596
662.059591	-111.723455
662.205833	-110.625778
662.352138	-109.878483
662.498509	-109.427926
662.644944	-109.224370
662.791443	-109.220599
662.938008	-109.370551
663.084638	-109.629623
663.231332	-109.957027
663.378091	-110.318811
663.524915	-110.689190
663.671804	-111.047486
663.818759	-111.371523
663.965778	-111.632061
664.112863	-111.794766
664.260012	-111.833710
664.407227	-111.750325
664.554507	-111.582934
664.701853	-111.399264
664.849264	-111.277958
664.996740	-111.294173
665.144282	-111.516523
665.291889	-112.012282
665.439561	-112.860548
665.587300	-114.177160
665.735103	-116.169599
665.882973	-119.300828
666.030908	-125.055818
666.178909	-146.784381
666.326976	-124.506077
666.475109	-118.532438
666.623307	-115.089597
666.771571	-112.746569
666.919902	-111.056538
667.068298	-109.829098
667.216761	-108.973474
667.365289	-108.447701
667.513884	-108.238555
667.662545	-108.353661
667.811272	-108.820150
667.960065	-109.688337
668.108925	-111.039560
668.257851	-112.986600
668.406843	-115.566851
668.555902	-117.910201
668.705027	-117.177060
668.854219	-114.160866
669.003478	-111.340883
669.152803	-109.132088
669.302195	-107.432303
669.451653	-106.125938
669.601179	-105.133269
669.750771	-104.402892
669.900430	-103.901659
670.050156	-103.607003
670.199949	-103.501225
670.349808	-103.566591
670.499735	-103.780851
670.649729	-104.112929
670.799790	-104.519213
670.949918	-104.943144
671.100114	-105.321754
671.250377	-105.600705
671.400707	-105.752260
671.551104	-105.783725
671.701569	-105.729824
671.852101	-105.636221
672.002700	-105.546305
672.153368	-105.495906
672.304102	-105.513986
672.454905	-105.624718
672.605775	-105.847228
672.756713	-106.191599
672.907718	-106.649533
673.058791	-107.177693
673.209933	-107.675403
673.361142	-107.977702
673.512419	-107.911386
673.663764	-107.416739
673.815177	-106.600944
673.966658	-105.645179
674.118207	-104.696452
674.269825	-103.837566
674.421510	-103.103691
674.573264	-102.504133
674.725086	-102.037170
674.876977	-101.698557
675.028936	-101.485852
675.180963	-101.400588
675.333059	-101.449069
675.485224	-101.642569
675.637457	-101.997277
675.789758	-102.534190
675.942129	-103.279344
676.094568	-104.264419
676.247075	-105.526629
676.399652	-107.103947
676.552298	-109.009871
676.705012	-111.131190
676.857795	-112.936370
677.010648	-113.384155
677.163569	-112.298504
677.316560	-110.679182
677.469619	-109.173715
677.622748	-107.941756
677.775946	-106.981098
677.929214	-106.260527
678.082551	-105.752253
678.235957	-105.434881
678.389432	-105.288875
678.542977	-105.289569
678.696592	-105.399884
678.850276	-105.565370
679.004030	-105.716708
679.157853	-105.786303
679.311746	-105.735444
679.465709	-105.572523
679.619742	-105.344963
679.773844	-105.111234
679.928017	-104.915352
680.082259	-104.775963
680.236571	-104.688280
680.390954	-104.633727
680.545406	-104.592862
680.699929	-104.557316
680.854522	-104.535201
681.009185	-104.546017
681.163918	-104.606955
681.318722	-104.717457
681.473596	-104.846492
681.628540	-104.927556
681.783555	-104.873716
681.938641	-104.619141
682.093797	-104.163214
682.249023	-103.573590
682.404321	-102.946073
682.559689	-102.363273
682.715128	-101.877619
682.870637	-101.513070
683.026218	-101.272919
683.181869	-101.147392
683.337591	-101.120130
683.493385	-101.173792
683.649249	-101.295010
683.805185	-101.477733
683.961191	-101.723245
684.117269	-102.035433
684.273418	-102.411488
684.429639	-102.829641
684.585930	-103.236319
684.742294	-103.541985
684.898728	-103.643137
685.055234	-103.474658
685.211812	-103.053095
685.368461	-102.461016
685.525182	-101.790572
685.681975	-101.103195
685.838839	-100.423082
685.995775	-99.750259
686.152783	-99.078106
686.309863	-98.406684
686.467014	-97.747791
686.624238	-97.121964
686.781534	-96.551205
686.938902	-96.052191
687.096342	-95.632530
687.253854	-95.290105
687.411438	-95.014761
687.569095	-94.791681
687.726824	-94.605733
687.884626	-94.445661
688.042499	-94.306831
688.200446	-94.191492
688.358465	-94.106494
688.516556	-94.059695
688.674720	-94.056701
688.832957	-94.099079
688.991266	-94.184493
689.149649	-94.308266
689.308104	-94.465512
689.466632	-94.653021
689.625233	-94.869803
689.783906	-95.115812
689.942653	-95.389102
690.101473	-95.682286
690.260367	-95.979931
690.419333	-96.258504
690.578372	-96.489931
690.737485	-96.648546
690.896672	-96.718800
691.055931	-96.699279
691.215264	-96.600777
691.374671	-96.440386
691.534151	-96.235776
691.693704	-96.002693
691.853332	-95.755769
692.013033	-95.510331
692.172807	-95.282966
692.332656	-95.090316
692.492578	-94.946448
692.652575	-94.859838
692.812645	-94.831131
692.972789	-94.851980
693.133007	-94.905268
693.293300	-94.967293
693.453666	-95.011797
693.614107	-95.015074
693.774622	-94.959968
693.935211	-94.836945
694.095875	-94.642620
694.256613	-94.377629
694.417426	-94.045926
694.578313	-93.656014
694.739274	-93.222485
694.900311	-92.765858
695.061421	-92.310260
695.222607	-91.879548
695.383868	-91.493743
695.545203	-91.167054
695.706613	-90.907402
695.868098	-90.717084
696.029658	-90.594034
696.191293	-90.533292
696.353003	-90.528317
696.514789	-90.571528
696.676649	-90.654073
696.838585	-90.764947
697.000596	-90.889864
697.162682	-91.010694
697.324844	-91.106552
697.487081	-91.157330
697.649394	-91.148883
697.811782	-91.077644
697.974246	-90.952112
698.136786	-90.789920
698.299401	-90.612094
698.462092	-90.437767
698.624859	-90.281420
698.787702	-90.152909
698.950621	-90.059383
699.113616	-90.007761
699.276686	-90.006643
699.439833	-90.066676
699.603056	-90.199093
699.766355	-90.412611
699.929731	-90.709305
700.093183	-91.079854
700.256711	-91.499048
700.420315	-91.923867
700.583996	-92.298247
700.747754	-92.568103
700.911588	-92.702679
701.075499	-92.708168
701.239486	-92.621277
701.403550	-92.488461
701.567691	-92.347059
701.731909	-92.217600
701.896203	-92.106196
702.060575	-92.011885
702.225024	-91.934095
702.389549	-91.876527
702.554152	-91.846245
702.718832	-91.848802
702.883589	-91.881690
703.048424	-91.928992
703.213335	-91.960472
703.378324	-91.937657
703.543391	-91.827049
703.708535	-91.615313
703.873757	-91.315970
704.039056	-90.962585
704.204433	-90.594332
704.369887	-90.243092
704.535420	-89.927353
704.701030	-89.652734
704.866718	-89.415836
705.032484	-89.209008
705.198328	-89.024538
705.364250	-88.856969
705.530250	-88.703096
705.696328	-88.560298
705.862485	-88.424440
706.028720	-88.288713
706.195033	-88.144651
706.361424	-87.984974
706.527894	-87.806904
706.694442	-87.614208
706.861069	-87.416520
707.027775	-87.226300
707.194559	-87.055100
707.361422	-86.910792
707.528363	-86.796710
707.695384	-86.712918
707.862483	-86.658805
708.029661	-86.635666
708.196918	-86.647867
708.364254	-86.701768
708.531670	-86.802442
708.699164	-86.948979
708.866738	-87.129777
709.034391	-87.319859
709.202123	-87.482858
709.369935	-87.580268
709.537826	-87.586546
709.705796	-87.501863
709.873847	-87.353057
710.041976	-87.181809
710.210186	-87.028511
710.378475	-86.920889
710.546844	-86.869805
710.715292	-86.870223
710.883821	-86.905363
711.052429	-86.952685
711.221118	-86.990112
711.389887	-87.000498
711.558735	-86.972702
711.727664	-86.899515
711.896673	-86.774659
712.065763	-86.591991
712.234932	-86.348312
712.404183	-86.047836
712.573513	-85.704851
712.742924	-85.342310
712.912416	-84.986941
713.081988	-84.663674
713.251641	-84.391714
713.421375	-84.183152
713.591190	-84.043541
713.761085	-83.973194
713.931061	-83.968568
714.101119	-84.023071
714.271257	-84.126909
714.441476	-84.266338
714.611777	-84.422875
714.782159	-84.573664
714.952622	-84.694430
715.123166	-84.765261
715.293792	-84.777377
715.464499	-84.737299
715.635288	-84.665332
715.806158	-84.589093
715.977110	-84.535793
716.148143	-84.526522
716.319259	-84.573813
716.490456	-84.682014
716.661735	-84.849463
716.833096	-85.071653
717.004538	-85.344230
717.176063	-85.664869
717.347670	-86.033442
717.519359	-86.449886
717.691130	-86.909876
717.862984	-87.399262
718.034920	-87.888912
718.206938	-88.333135
718.379039	-88.676665
718.551222	-88.872401
718.723488	-88.902947
718.895836	-88.790355
719.068267	-88.585403
719.240781	-88.346079
719.413377	-88.120520
719.586057	-87.939935
719.758819	-87.818383
719.931664	-87.755020
720.104593	-87.736169
720.277604	-87.736806
720.450699	-87.722582
720.623876	-87.654312
720.797137	-87.496473
720.970482	-87.227857
721.143910	-86.849152
721.317421	-86.382482
721.491016	-85.863081
721.664694	-85.328311
721.838456	-84.809344
722.012302	-84.327504
722.186231	-83.894182
722.360244	-83.512785
722.534342	-83.181565
722.708523	-82.896399
722.882788	-82.652899
723.057137	-82.447477
723.231570	-82.277024
723.406088	-82.137275
723.580689	-82.020603
723.755375	-81.914235
723.930146	-81.800246
724.105000	-81.658402
724.279940	-81.471756
724.454963	-81.233012
