# 2022-03-21_16.32.00
# shape = sech2
# FWHM_ps = 0.1
# carrier_nm = 1542
# frep_MHz = 12126
# pow_mW = 8000
# GDD = 0.0
# propa_len = 0.10555555555555557
# untap_len = 0.01
# taper_len = 0.04555555555555556
# waist_len = 0.02
# uptap_len = 0.02
# untap_scale = 1.0
# waist_scale = 0.35
# workingDir = NL_20110305_12 (Spirou)
# axis = slow
# window_ps = 10.0
# steps = 200
# points = 21700
# 
# wavelength [nm]	 power spectral density [dB]
600.043425	-129.883268
600.163550	-128.743310
600.283723	-127.701109
600.403943	-126.757628
600.524212	-125.913140
600.644529	-125.166335
600.764895	-124.514866
600.885308	-123.955667
601.005770	-123.485185
601.126280	-123.099564
601.246839	-122.794740
601.367446	-122.566401
601.488101	-122.409881
601.608804	-122.319978
601.729557	-122.290767
601.850357	-122.315518
601.971206	-122.386629
602.092104	-122.495532
602.213050	-122.632711
602.334045	-122.787800
602.455089	-122.949720
602.576181	-123.106901
602.697322	-123.247715
602.818511	-123.361144
602.939749	-123.437774
603.061036	-123.470995
603.182372	-123.458020
603.303757	-123.400441
603.425191	-123.304280
603.546673	-123.179426
603.668204	-123.038552
603.789785	-122.895860
603.911414	-122.765856
604.033092	-122.662303
604.154820	-122.597550
604.276596	-122.582298
604.398422	-122.625601
604.520297	-122.734920
604.642220	-122.916113
604.764193	-123.173370
604.886216	-123.509013
605.008287	-123.923105
605.130408	-124.412915
605.252578	-124.972224
605.374798	-125.590494
605.497066	-126.252079
605.619385	-126.935843
605.741752	-127.615788
605.864169	-128.263685
605.986636	-128.853990
606.109152	-129.369346
606.231718	-129.803902
606.354333	-130.162449
606.476998	-130.455506
606.599712	-130.692467
606.722476	-130.875509
606.845290	-130.996385
606.968154	-131.037516
607.091067	-130.977780
607.214030	-130.801537
607.337043	-130.506935
607.460106	-130.108958
607.583219	-129.635829
607.706381	-129.121511
607.829594	-128.598550
607.952856	-128.093856
608.076169	-127.627499
608.199531	-127.213326
608.322944	-126.860264
608.446407	-126.573664
608.569920	-126.356487
608.693483	-126.210207
608.817096	-126.135294
608.940759	-126.131434
609.064473	-126.197672
609.188237	-126.332472
609.312051	-126.533581
609.435916	-126.797758
609.559831	-127.120447
609.683796	-127.495400
609.807812	-127.914206
609.931878	-128.365718
610.055995	-128.835490
610.180162	-129.305416
610.304380	-129.753665
610.428648	-130.155072
610.552967	-130.482391
610.677337	-130.708767
610.801757	-130.811064
610.926228	-130.773277
611.050750	-130.589313
611.175323	-130.264304
611.299946	-129.813613
611.424620	-129.259716
611.549345	-128.628370
611.674121	-127.945281
611.798948	-127.233781
611.923826	-126.513513
612.048755	-125.799914
612.173734	-125.104277
612.298765	-124.434279
612.423847	-123.794766
612.548980	-123.188464
612.674165	-122.616541
612.799400	-122.079091
612.924687	-121.575566
613.050025	-121.105127
613.175414	-120.666899
613.300854	-120.260125
613.426346	-119.884296
613.551889	-119.539227
613.677484	-119.225060
613.803130	-118.942239
613.928827	-118.691505
614.054576	-118.473893
614.180377	-118.290709
614.306229	-118.143411
614.432132	-118.033430
614.558087	-117.962035
614.684094	-117.930260
614.810153	-117.938797
614.936263	-117.987901
615.062425	-118.077354
615.188639	-118.206428
615.314904	-118.373854
615.441222	-118.577832
615.567591	-118.816085
615.694012	-119.085975
615.820486	-119.384608
615.947011	-119.708972
616.073588	-120.056155
616.200217	-120.423582
616.326898	-120.809229
616.453632	-121.211808
616.580417	-121.630856
616.707255	-122.066800
616.834144	-122.521113
616.961086	-122.996569
617.088081	-123.497549
617.215127	-124.030481
617.342226	-124.604489
617.469378	-125.232321
617.596581	-125.931420
617.723837	-126.725069
617.851146	-127.643615
617.978507	-128.725346
618.105920	-130.014417
618.233386	-131.545256
618.360905	-133.273717
618.488476	-134.845632
618.616100	-135.303609
618.743777	-134.033851
618.871506	-131.882512
618.999288	-129.708331
619.127123	-127.783882
619.255011	-126.135671
619.382951	-124.732966
619.510945	-123.539770
619.638991	-122.525727
619.767090	-121.667177
619.895243	-120.946235
620.023448	-120.349624
620.151706	-119.867711
620.280017	-119.493871
620.408382	-119.224072
620.536799	-119.056619
620.665270	-118.992073
620.793794	-119.033338
620.922371	-119.185813
621.051002	-119.457670
621.179686	-119.860452
621.308423	-120.410173
621.437213	-121.129134
621.566057	-122.048983
621.694954	-123.216317
621.823905	-124.703782
621.952909	-126.634321
622.081967	-129.242047
622.211079	-133.061070
622.340244	-139.722967
622.469462	-145.369082
622.598735	-136.211556
622.728061	-131.583089
622.857441	-128.738973
622.986874	-126.779410
623.116361	-125.358634
623.245903	-124.309126
623.375498	-123.537550
623.505147	-122.986985
623.634850	-122.620576
623.764606	-122.413610
623.894417	-122.349092
624.024282	-122.414668
624.154201	-122.599942
624.284174	-122.893340
624.414202	-123.277193
624.544283	-123.719439
624.674419	-124.161420
624.804609	-124.506322
624.934853	-124.624364
625.065151	-124.397893
625.195504	-123.793532
625.325911	-122.887981
625.456373	-121.814093
625.586889	-120.692838
625.717460	-119.605443
625.848085	-118.597261
625.978764	-117.690115
626.109498	-116.892414
626.240287	-116.205492
626.371131	-115.627204
626.502029	-115.153843
626.632982	-114.781103
626.763989	-114.504617
626.895052	-114.320288
627.026169	-114.224513
627.157341	-114.214410
627.288568	-114.288088
627.419850	-114.444939
627.551187	-114.685912
627.682579	-115.013867
627.814026	-115.434012
627.945528	-115.954311
628.077085	-116.585918
628.208697	-117.343833
628.340364	-118.247922
628.472087	-119.324235
628.603865	-120.606237
628.735698	-122.134453
628.867586	-123.947680
628.999530	-126.037326
629.131529	-128.168845
629.263584	-129.502911
629.395694	-129.072031
629.527859	-127.434376
629.660080	-125.633903
629.792357	-124.067329
629.924689	-122.786833
630.057077	-121.759162
630.189520	-120.940823
630.322019	-120.293978
630.454574	-119.788028
630.587184	-119.398314
630.719851	-119.104587
630.852573	-118.889699
630.985351	-118.738442
631.118185	-118.636630
631.251075	-118.570673
631.384021	-118.527685
631.517023	-118.496142
631.650081	-118.466979
631.783195	-118.434885
631.916365	-118.399559
632.049592	-118.366591
632.182874	-118.347521
632.316213	-118.358990
632.449608	-118.421432
632.583059	-118.558010
632.716567	-118.794317
632.850131	-119.158978
632.983751	-119.685358
633.117428	-120.415206
633.251161	-121.405839
633.384951	-122.744274
633.518797	-124.578275
633.652700	-127.196980
633.786660	-131.292588
633.920676	-138.842309
634.054749	-137.645141
634.188879	-130.357113
634.323065	-126.232334
634.457308	-123.461569
634.591608	-121.420081
634.725965	-119.839280
634.860379	-118.579552
634.994850	-117.558390
635.129377	-116.722249
635.263962	-116.033848
635.398604	-115.465694
635.533303	-114.996349
635.668058	-114.608066
635.802872	-114.285172
635.937742	-114.012970
636.072669	-113.777125
636.207654	-113.563604
636.342696	-113.359159
636.477796	-113.152293
636.612953	-112.934596
636.748167	-112.702116
636.883439	-112.456223
637.018768	-112.203502
637.154155	-111.954676
637.289599	-111.722960
637.425101	-111.522345
637.560660	-111.366137
637.696277	-111.265907
637.831952	-111.230878
637.967685	-111.267644
638.103475	-111.380059
638.239324	-111.569214
638.375230	-111.833431
638.511194	-112.168292
638.647215	-112.566784
638.783295	-113.019690
638.919433	-113.516344
639.055629	-114.045909
639.191883	-114.599361
639.328195	-115.171881
639.464565	-115.764921
639.600994	-116.387401
639.737481	-117.055881
639.874025	-117.793975
640.010629	-118.631738
640.147290	-119.605530
640.284010	-120.758088
640.420789	-122.136257
640.557625	-123.774413
640.694521	-125.615451
640.831474	-127.235242
640.968487	-127.540576
641.105558	-126.020736
641.242687	-123.715080
641.379876	-121.451416
641.517123	-119.449280
641.654429	-117.715399
641.791793	-116.215238
641.929216	-114.914942
642.066699	-113.788438
642.204240	-112.816744
642.341840	-111.986092
642.479499	-111.286366
642.617217	-110.709984
642.754994	-110.251096
642.892830	-109.905054
643.030726	-109.668075
643.168680	-109.537000
643.306694	-109.509092
643.444767	-109.581865
643.582899	-109.752855
643.721091	-110.019338
643.859342	-110.377934
643.997652	-110.823936
644.136022	-111.350240
644.274451	-111.945845
644.412940	-112.593786
644.551488	-113.268635
644.690096	-113.934606
644.828763	-114.546552
644.967490	-115.056727
645.106277	-115.428237
645.245124	-115.649965
645.384030	-115.743094
645.522997	-115.754099
645.662023	-115.739718
645.801109	-115.753868
645.940255	-115.841448
646.079460	-116.037698
646.218726	-116.369855
646.358052	-116.858845
646.497438	-117.519502
646.636884	-118.357096
646.776391	-119.355842
646.915957	-120.451758
647.055584	-121.485261
647.195271	-122.173339
647.335019	-122.235748
647.474826	-121.664965
647.614695	-120.735938
647.754623	-119.738346
647.894612	-118.840581
648.034662	-118.114489
648.174772	-117.584429
648.314943	-117.256525
648.455174	-117.131978
648.595466	-117.212688
648.735819	-117.503635
648.876233	-118.013537
649.016707	-118.753462
649.157242	-119.730372
649.297838	-120.926422
649.438495	-122.241873
649.579213	-123.378608
649.719992	-123.797556
649.860832	-123.165071
650.001733	-121.814769
650.142695	-120.271490
650.283718	-118.815923
650.424803	-117.532124
650.565949	-116.422611
650.707156	-115.464083
650.848424	-114.627634
650.989754	-113.885345
651.131145	-113.212369
651.272597	-112.587746
651.414111	-111.994986
651.555687	-111.422685
651.697324	-110.864999
651.839022	-110.321605
651.980782	-109.797064
652.122604	-109.299733
652.264488	-108.840423
652.406433	-108.431098
652.548441	-108.083716
652.690510	-107.809304
652.832640	-107.617362
652.974833	-107.515506
653.117088	-107.509193
653.259405	-107.601448
653.401784	-107.792446
653.544224	-108.078619
653.686727	-108.451010
653.829293	-108.892606
653.971920	-109.374585
654.114609	-109.852198
654.257361	-110.263286
654.400175	-110.535345
654.543052	-110.605917
654.685991	-110.449928
654.828992	-110.093550
654.972056	-109.601462
655.115183	-109.049746
655.258372	-108.505038
655.401623	-108.017065
655.544937	-107.619954
655.688314	-107.336502
655.831754	-107.182400
655.975256	-107.169520
656.118822	-107.308237
656.262450	-107.609058
656.406141	-108.083948
656.549894	-108.747797
656.693711	-109.620234
656.837591	-110.727834
656.981534	-112.106591
657.125540	-113.802890
657.269610	-115.863170
657.413742	-118.267304
657.557938	-120.642861
657.702196	-121.766951
657.846519	-120.847816
657.990904	-119.088929
658.135353	-117.474480
658.279866	-116.231585
658.424441	-115.352417
658.569081	-114.795078
658.713784	-114.526698
658.858550	-114.530197
659.003381	-114.804934
659.148274	-115.368432
659.293232	-116.262407
659.438253	-117.567436
659.583339	-119.437391
659.728488	-122.187237
659.873701	-126.517321
660.018978	-132.284816
660.164318	-127.870576
660.309723	-122.457857
660.455192	-118.916809
660.600725	-116.390460
660.746323	-114.477955
660.891984	-112.985357
661.037710	-111.808008
661.183500	-110.885166
661.329354	-110.180420
661.475272	-109.672314
661.621255	-109.349481
661.767303	-109.208180
661.913415	-109.251394
662.059591	-109.489059
662.205833	-109.939355
662.352138	-110.631561
662.498509	-111.611608
662.644944	-112.952856
662.791443	-114.778058
662.938008	-117.304469
663.084638	-120.901831
663.231332	-125.364344
663.378091	-124.627952
663.524915	-120.168726
663.671804	-116.834314
663.818759	-114.486872
663.965778	-112.783407
664.112863	-111.527994
664.260012	-110.608075
664.407227	-109.954835
664.554507	-109.523799
664.701853	-109.284831
664.849264	-109.216478
664.996740	-109.302356
665.144282	-109.528444
665.291889	-109.880586
665.439561	-110.341702
665.587300	-110.888409
665.735103	-111.487170
665.882973	-112.091023
666.030908	-112.639633
666.178909	-113.066961
666.326976	-113.318689
666.475109	-113.372701
666.623307	-113.247841
666.771571	-112.993316
666.919902	-112.668112
667.068298	-112.324775
667.216761	-112.002860
667.365289	-111.729236
667.513884	-111.520966
667.662545	-111.388184
667.811272	-111.336136
667.960065	-111.366396
668.108925	-111.477505
668.257851	-111.665162
668.406843	-111.922166
668.555902	-112.238299
668.705027	-112.600037
668.854219	-112.989677
669.003478	-113.383725
669.152803	-113.750677
669.302195	-114.048852
669.451653	-114.226409
669.601179	-114.227498
669.750771	-114.007219
669.900430	-113.550402
670.050156	-112.881035
670.199949	-112.053449
670.349808	-111.132312
670.499735	-110.175794
670.649729	-109.228341
670.799790	-108.320807
670.949918	-107.473539
671.100114	-106.699599
671.250377	-106.007333
671.400707	-105.402256
671.551104	-104.888343
671.701569	-104.468826
671.852101	-104.146669
672.002700	-103.924817
672.153368	-103.806319
672.304102	-103.794375
672.454905	-103.892312
672.605775	-104.103405
672.756713	-104.430369
672.907718	-104.874323
673.058791	-105.432793
673.209933	-106.095902
673.361142	-106.839464
673.512419	-107.614025
673.663764	-108.332359
673.815177	-108.868109
673.966658	-109.089775
674.118207	-108.932422
674.269825	-108.443459
674.421510	-107.744942
674.573264	-106.960540
674.725086	-106.176635
674.876977	-105.441408
675.028936	-104.777244
675.180963	-104.192129
675.333059	-103.686995
675.485224	-103.259871
675.637457	-102.908091
675.789758	-102.629405
675.942129	-102.422487
676.094568	-102.287142
676.247075	-102.224404
676.399652	-102.236616
676.552298	-102.327502
676.705012	-102.502259
676.857795	-102.767763
677.010648	-103.132973
677.163569	-103.609590
677.316560	-104.213098
677.469619	-104.964493
677.622748	-105.893165
677.775946	-107.042110
677.929214	-108.478101
678.082551	-110.313412
678.235957	-112.759151
678.389432	-116.288892
678.542977	-122.370885
678.696592	-133.578994
678.850276	-121.289094
679.004030	-115.816996
679.157853	-112.544454
679.311746	-110.255755
679.465709	-108.535447
679.619742	-107.194781
679.773844	-106.134649
679.928017	-105.299369
680.082259	-104.657437
680.236571	-104.192107
680.390954	-103.896197
680.545406	-103.769182
680.699929	-103.815709
680.854522	-104.045002
681.009185	-104.471003
681.163918	-105.113410
681.318722	-106.000000
681.473596	-107.170853
681.628540	-108.685706
681.783555	-110.636496
681.938641	-113.164509
682.093797	-116.438164
682.249023	-120.121583
682.404321	-121.078695
682.559689	-118.438232
682.715128	-115.837834
682.870637	-114.013314
683.026218	-112.828194
683.181869	-112.141011
683.337591	-111.865321
683.493385	-111.952702
683.649249	-112.375387
683.805185	-113.107822
683.961191	-114.095161
684.117269	-115.191010
684.273418	-116.076626
684.429639	-116.332592
684.585930	-115.837371
684.742294	-114.927362
684.898728	-114.002113
685.055234	-113.283938
685.211812	-112.859219
685.368461	-112.754062
685.525182	-112.972819
685.681975	-113.509119
685.838839	-114.336349
685.995775	-115.367780
686.152783	-116.367858
686.309863	-116.880216
686.467014	-116.488044
686.624238	-115.316298
686.781534	-113.840346
686.938902	-112.396201
687.096342	-111.115101
687.253854	-110.025625
687.411438	-109.119952
687.569095	-108.380607
687.726824	-107.789369
687.884626	-107.329421
688.042499	-106.984845
688.200446	-106.738803
688.358465	-106.570819
688.516556	-106.453667
688.674720	-106.351117
688.832957	-106.218711
688.991266	-106.010334
689.149649	-105.691139
689.308104	-105.251469
689.466632	-104.712138
689.625233	-104.116508
689.783906	-103.515286
689.942653	-102.953717
690.101473	-102.465737
690.260367	-102.073784
690.419333	-101.791216
690.578372	-101.625331
690.737485	-101.580276
690.896672	-101.659710
691.055931	-101.869221
691.215264	-102.218504
691.374671	-102.723500
691.534151	-103.408706
691.693704	-104.309899
691.853332	-105.477507
692.013033	-106.979310
692.172807	-108.892021
692.332656	-111.221580
692.492578	-113.486364
692.652575	-113.992768
692.812645	-112.165290
692.972789	-109.804479
693.133007	-107.791462
693.293300	-106.214916
693.453666	-105.006385
693.614107	-104.091319
693.774622	-103.409773
693.935211	-102.915205
694.095875	-102.571222
694.256613	-102.349080
694.417426	-102.225991
694.578313	-102.184008
694.739274	-102.209155
694.900311	-102.290555
695.061421	-102.419370
695.222607	-102.587645
695.383868	-102.787452
695.545203	-103.010757
695.706613	-103.250208
695.868098	-103.500662
696.029658	-103.760870
696.191293	-104.034792
696.353003	-104.332180
696.514789	-104.668223
696.676649	-105.062517
696.838585	-105.537830
697.000596	-106.118886
697.162682	-106.831345
697.324844	-107.700616
697.487081	-108.748879
697.649394	-109.986064
697.811782	-111.384462
697.974246	-112.816561
698.136786	-113.958999
698.299401	-114.345538
698.462092	-113.816758
698.624859	-112.734759
698.787702	-111.527531
698.950621	-110.413806
699.113616	-109.458299
699.276686	-108.659568
699.439833	-107.994978
699.603056	-107.439412
699.766355	-106.973110
699.929731	-106.584875
700.093183	-106.272676
700.256711	-106.042658
700.420315	-105.907452
700.583996	-105.884635
700.747754	-105.996007
700.911588	-106.268239
701.075499	-106.735377
701.239486	-107.443593
701.403550	-108.459771
701.567691	-109.888060
701.731909	-111.903896
701.896203	-114.822374
702.060575	-119.075183
702.225024	-122.053089
702.389549	-117.900918
702.554152	-113.788275
702.718832	-110.958322
702.883589	-108.970596
703.048424	-107.553854
703.213335	-106.560624
703.378324	-105.908216
703.543391	-105.551709
703.708535	-105.472706
703.873757	-105.676067
704.039056	-106.191750
704.204433	-107.082339
704.369887	-108.461247
704.535420	-110.534255
704.701030	-113.681441
704.866718	-118.221499
705.032484	-119.105192
705.198328	-114.247565
705.364250	-110.523812
705.530250	-108.027252
705.696328	-106.341082
705.862485	-105.237531
706.028720	-104.592137
706.195033	-104.331513
706.361424	-104.408393
706.527894	-104.788523
706.694442	-105.442392
706.861069	-106.338671
707.027775	-107.438283
707.194559	-108.689626
707.361422	-110.028090
707.528363	-111.386505
707.695384	-112.722822
707.862483	-114.060921
708.029661	-115.530222
708.196918	-117.412116
708.364254	-120.287457
708.531670	-125.712632
708.699164	-131.046625
708.866738	-121.104458
709.034391	-115.482688
709.202123	-111.785795
709.369935	-109.101955
709.537826	-107.089232
709.705796	-105.586728
709.873847	-104.507346
710.041976	-103.799570
710.210186	-103.430736
710.378475	-103.377878
710.546844	-103.620765
710.715292	-104.133692
710.883821	-104.872115
711.052429	-105.749184
711.221118	-106.602737
711.389887	-107.184384
711.558735	-107.249812
711.727664	-106.738603
711.896673	-105.810677
712.065763	-104.685844
712.234932	-103.524315
712.404183	-102.419446
712.573513	-101.425393
712.742924	-100.577050
712.912416	-99.899293
713.081988	-99.410846
713.251641	-99.126365
713.421375	-99.058275
713.591190	-99.218753
713.761085	-99.621720
713.931061	-100.284626
714.101119	-101.229698
714.271257	-102.482896
714.441476	-104.063292
714.611777	-105.937012
714.782159	-107.863097
714.952622	-109.121771
715.123166	-108.917548
715.293792	-107.628684
715.464499	-106.137131
715.635288	-104.848837
715.806158	-103.842797
715.977110	-103.095295
716.148143	-102.558856
716.319259	-102.182526
716.490456	-101.916575
716.661735	-101.715409
716.833096	-101.542765
717.004538	-101.378258
717.176063	-101.221636
717.347670	-101.091388
717.519359	-101.017728
717.691130	-101.033198
717.862984	-101.164167
718.034920	-101.423763
718.206938	-101.804988
718.379039	-102.273384
718.551222	-102.762370
718.723488	-103.181815
718.895836	-103.452270
719.068267	-103.553758
719.240781	-103.545582
719.413377	-103.535485
719.586057	-103.632988
719.758819	-103.923373
719.931664	-104.462364
720.104593	-105.274479
720.277604	-106.337716
720.450699	-107.536975
720.623876	-108.590651
720.797137	-109.084718
720.970482	-108.817604
721.143910	-108.037491
721.317421	-107.116396
721.491016	-106.263876
721.664694	-105.538448
721.838456	-104.927044
722.012302	-104.395330
722.186231	-103.912245
722.360244	-103.459621
722.534342	-103.032307
722.708523	-102.633295
722.882788	-102.268630
