# 2022-03-21_23.36.10
# shape = sech2
# FWHM_ps = 0.1
# carrier_nm = 1542
# frep_MHz = 12126
# pow_mW = 8000
# GDD = 0.0
# propa_len = 0.12555555555555556
# untap_len = 0.01
# taper_len = 0.06555555555555556
# waist_len = 0.02
# uptap_len = 0.02
# untap_scale = 1.0
# waist_scale = 0.368421052631579
# workingDir = NL_20110305_12 (Spirou)
# axis = slow
# window_ps = 10.0
# steps = 200
# points = 21700
# 
# wavelength [nm]	 power spectral density [dB]
600.043425	-148.222438
600.163550	-149.074885
600.283723	-150.318446
600.403943	-152.056458
600.524212	-154.283878
600.644529	-156.158427
600.764895	-155.366717
600.885308	-152.490073
601.005770	-149.662400
601.126280	-147.378621
601.246839	-145.592132
601.367446	-144.206589
601.488101	-143.145451
601.608804	-142.352544
601.729557	-141.785813
601.850357	-141.412487
601.971206	-141.206325
602.092104	-141.146605
602.213050	-141.218440
602.334045	-141.413996
602.455089	-141.734148
602.576181	-142.190352
602.697322	-142.806968
602.818511	-143.624659
602.939749	-144.706608
603.061036	-146.152183
603.182372	-148.129535
603.303757	-150.960270
603.425191	-155.346613
603.546673	-161.527842
603.668204	-157.673061
603.789785	-152.259722
603.911414	-148.834392
604.033092	-146.475889
604.154820	-144.752917
604.276596	-143.452759
604.398422	-142.454356
604.520297	-141.680354
604.642220	-141.076847
604.764193	-140.604132
604.886216	-140.232451
605.008287	-139.940114
605.130408	-139.712782
605.252578	-139.543163
605.374798	-139.430830
605.497066	-139.381915
605.619385	-139.408550
605.741752	-139.528220
605.864169	-139.763374
605.986636	-140.141522
606.109152	-140.696009
606.231718	-141.467631
606.354333	-142.506539
606.476998	-143.870546
606.599712	-145.601194
606.722476	-147.595313
606.845290	-149.158562
606.968154	-148.887590
607.091067	-146.914228
607.214030	-144.635465
607.337043	-142.648052
607.460106	-141.025892
607.583219	-139.724820
607.706381	-138.691177
607.829594	-137.881381
607.952856	-137.263001
608.076169	-136.812852
608.199531	-136.515173
608.322944	-136.360239
608.446407	-136.343297
608.569920	-136.463555
608.693483	-136.722851
608.817096	-137.123407
608.940759	-137.663585
609.064473	-138.329588
609.188237	-139.079635
609.312051	-139.818438
609.435916	-140.374750
609.559831	-140.533946
609.683796	-140.171686
609.807812	-139.366371
609.931878	-138.322479
610.055995	-137.223507
610.180162	-136.177479
610.304380	-135.233172
610.428648	-134.407018
610.552967	-133.700888
610.677337	-133.111361
610.801757	-132.634025
610.926228	-132.265190
611.050750	-132.002398
611.175323	-131.844470
611.299946	-131.791471
611.424620	-131.844674
611.549345	-132.006507
611.674121	-132.280592
611.798948	-132.671927
611.923826	-133.187179
612.048755	-133.834940
612.173734	-134.625928
612.298765	-135.573088
612.423847	-136.691306
612.548980	-137.996031
612.674165	-139.498895
612.799400	-141.194996
612.924687	-143.028629
613.050025	-144.817657
613.175414	-146.173324
613.300854	-146.670789
613.426346	-146.333113
613.551889	-145.602388
613.677484	-144.855016
613.803130	-144.255535
613.928827	-143.833308
614.054576	-143.542350
614.180377	-143.282364
614.306229	-142.919343
614.432132	-142.340845
614.558087	-141.529312
614.684094	-140.577308
614.810153	-139.625941
614.936263	-138.800646
615.062425	-138.190397
615.188639	-137.856192
615.314904	-137.846632
615.441222	-138.212338
615.567591	-139.019369
615.694012	-140.362852
615.820486	-142.368111
615.947011	-145.048742
616.073588	-147.257230
616.200217	-146.079869
616.326898	-143.089731
616.453632	-140.527015
616.580417	-138.638548
616.707255	-137.294012
616.834144	-136.368089
616.961086	-135.769198
617.088081	-135.430592
617.215127	-135.302433
617.342226	-135.347262
617.469378	-135.537045
617.596581	-135.849643
617.723837	-136.262565
617.851146	-136.742505
617.978507	-137.231502
618.105920	-137.637115
618.233386	-137.845008
618.360905	-137.769400
618.488476	-137.412049
618.616100	-136.864175
618.743777	-136.248283
618.871506	-135.664491
618.999288	-135.174052
619.127123	-134.806154
619.255011	-134.569726
619.382951	-134.463097
619.510945	-134.480766
619.638991	-134.618156
619.767090	-134.874979
619.895243	-135.257532
620.023448	-135.779958
620.151706	-136.464394
620.280017	-137.339241
620.408382	-138.432524
620.536799	-139.749955
620.665270	-141.207136
620.793794	-142.469613
620.922371	-142.869097
621.051002	-142.042783
621.179686	-140.511970
621.308423	-138.911418
621.437213	-137.522082
621.566057	-136.412552
621.694954	-135.578390
621.823905	-134.994454
621.952909	-134.628628
622.081967	-134.442250
622.211079	-134.386299
622.340244	-134.397902
622.469462	-134.402458
622.598735	-134.327097
622.728061	-134.124425
622.857441	-133.791902
622.986874	-133.369545
623.116361	-132.917861
623.245903	-132.494544
623.375498	-132.142565
623.505147	-131.888984
623.634850	-131.748875
623.764606	-131.730222
623.894417	-131.838041
624.024282	-132.077360
624.154201	-132.455072
624.284174	-132.980868
624.414202	-133.667444
624.544283	-134.530163
624.674419	-135.586177
624.804609	-136.852492
624.934853	-138.340791
625.065151	-140.042126
625.195504	-141.882679
625.325911	-143.618761
625.456373	-144.731297
625.586889	-144.730950
625.717460	-143.794948
625.848085	-142.490899
625.978764	-141.183654
626.109498	-140.002297
626.240287	-138.970397
626.371131	-138.078028
626.502029	-137.310069
626.632982	-136.657675
626.763989	-136.123188
626.895052	-135.720977
627.026169	-135.475042
627.157341	-135.414630
627.288568	-135.568918
627.419850	-135.960069
627.551187	-136.590497
627.682579	-137.414523
627.814026	-138.282579
627.945528	-138.886359
628.077085	-138.868281
628.208697	-138.165551
628.340364	-137.076434
628.472087	-135.920816
628.603865	-134.858737
628.735698	-133.925542
628.867586	-133.095809
628.999530	-132.322785
629.131529	-131.561350
629.263584	-130.782335
629.395694	-129.979022
629.527859	-129.165466
629.660080	-128.369336
629.792357	-127.623874
629.924689	-126.962173
630.057077	-126.414438
630.189520	-126.007450
630.322019	-125.765241
630.454574	-125.710250
630.587184	-125.864731
630.719851	-126.252424
630.852573	-126.900702
630.985351	-127.843513
631.118185	-129.125250
631.251075	-130.804128
631.384021	-132.943997
631.517023	-135.530411
631.650081	-138.029944
631.783195	-138.680667
631.916365	-137.003209
632.049592	-134.822507
632.182874	-132.966729
632.316213	-131.508605
632.449608	-130.384395
632.583059	-129.533494
632.716567	-128.914145
632.850131	-128.497965
632.983751	-128.262253
633.117428	-128.183112
633.251161	-128.229633
633.384951	-128.359526
633.518797	-128.518031
633.652700	-128.643738
633.786660	-128.683890
633.920676	-128.614522
634.054749	-128.452194
634.188879	-128.247678
634.323065	-128.067634
634.457308	-127.978291
634.591608	-128.038551
634.725965	-128.301374
634.860379	-128.820135
634.994850	-129.658871
635.129377	-130.909312
635.263962	-132.725177
635.398604	-135.407461
635.533303	-139.663280
635.668058	-146.837663
635.802872	-144.062272
635.937742	-137.896620
636.072669	-134.266480
636.207654	-131.881848
636.342696	-130.228204
636.477796	-129.077491
636.612953	-128.315016
636.748167	-127.879190
636.883439	-127.735653
637.018768	-127.862962
637.154155	-128.241072
637.289599	-128.837338
637.425101	-129.585958
637.560660	-130.363468
637.696277	-130.987065
637.831952	-131.289091
637.967685	-131.248105
638.103475	-131.015363
638.239324	-130.796832
638.375230	-130.752779
638.511194	-130.983218
638.647215	-131.552251
638.783295	-132.515392
638.919433	-133.945967
639.055629	-135.973515
639.191883	-138.871290
639.328195	-143.331415
639.464565	-151.243998
639.600994	-149.461940
639.737481	-142.827953
639.874025	-139.168033
640.010629	-136.848630
640.147290	-135.296911
640.284010	-134.255737
640.420789	-133.557900
640.557625	-133.038388
640.694521	-132.501360
640.831474	-131.755327
640.968487	-130.713321
641.105558	-129.445611
641.242687	-128.104319
641.379876	-126.820642
641.517123	-125.667476
641.654429	-124.669167
641.791793	-123.820745
641.929216	-123.103187
642.066699	-122.494355
642.204240	-121.977226
642.341840	-121.545636
642.479499	-121.206789
642.617217	-120.980296
642.754994	-120.894954
642.892830	-120.985178
643.030726	-121.288645
643.168680	-121.845599
643.306694	-122.699085
643.444767	-123.893372
643.582899	-125.460702
643.721091	-127.360273
643.859342	-129.267497
643.997652	-130.265886
644.136022	-129.641436
644.274451	-128.127986
644.412940	-126.607463
644.551488	-125.378373
644.690096	-124.476061
644.828763	-123.880393
644.967490	-123.577751
645.106277	-123.576744
645.245124	-123.913216
645.384030	-124.656882
645.522997	-125.928445
645.662023	-127.941495
645.801109	-131.082629
645.940255	-135.569374
646.079460	-135.865381
646.218726	-131.014597
646.358052	-127.379611
646.497438	-124.926046
646.636884	-123.247083
646.776391	-122.117133
646.915957	-121.410338
647.055584	-121.053064
647.195271	-121.002306
647.335019	-121.235405
647.474826	-121.743965
647.614695	-122.527012
647.754623	-123.576164
647.894612	-124.836193
648.034662	-126.111399
648.174772	-126.949649
648.314943	-126.845376
648.455174	-125.864950
648.595466	-124.549653
648.735819	-123.304140
648.876233	-122.287224
649.016707	-121.536004
649.157242	-121.047091
649.297838	-120.809111
649.438495	-120.814701
649.579213	-121.065745
649.719992	-121.577112
649.860832	-122.381199
650.001733	-123.534755
650.142695	-125.128709
650.283718	-127.292574
650.424803	-130.103878
650.565949	-132.788416
650.707156	-132.391049
650.848424	-129.543184
650.989754	-126.922087
651.131145	-124.982446
651.272597	-123.619907
651.414111	-122.716834
651.555687	-122.192990
651.697324	-121.999210
651.839022	-122.111259
651.980782	-122.529081
652.122604	-123.281393
652.264488	-124.436154
652.406433	-126.117429
652.548441	-128.508986
652.690510	-131.585996
652.832640	-133.088428
652.974833	-130.237904
653.117088	-126.746538
653.259405	-124.059648
653.401784	-122.087568
653.544224	-120.659887
653.686727	-119.660872
653.829293	-119.016067
653.971920	-118.677047
654.114609	-118.613288
654.257361	-118.809224
654.400175	-119.265058
654.543052	-120.000993
654.685991	-121.065884
654.828992	-122.554195
654.972056	-124.642386
655.115183	-127.671724
655.258372	-132.225642
655.401623	-135.929645
655.544937	-131.400907
655.688314	-127.169881
655.831754	-124.414105
655.975256	-122.589870
656.118822	-121.405507
656.262450	-120.711647
656.406141	-120.427838
656.549894	-120.510828
656.693711	-120.939828
656.837591	-121.706883
656.981534	-122.801342
657.125540	-124.164203
657.269610	-125.557706
657.413742	-126.367460
657.557938	-125.925139
657.702196	-124.475554
657.846519	-122.775165
657.990904	-121.249243
658.135353	-120.024087
658.279866	-119.116835
658.424441	-118.517497
658.569081	-118.213912
658.713784	-118.198240
658.858550	-118.468343
659.003381	-119.027854
659.148274	-119.885425
659.293232	-121.051667
659.438253	-122.528510
659.583339	-124.276112
659.728488	-126.126388
659.873701	-127.652735
660.018978	-128.309310
660.164318	-128.086995
660.309723	-127.539087
660.455192	-127.108603
660.600725	-126.935137
660.746323	-126.931091
660.891984	-126.810321
661.037710	-126.194438
661.183500	-124.953671
661.329354	-123.353143
661.475272	-121.739779
661.621255	-120.319054
661.767303	-119.172708
661.913415	-118.323658
662.059591	-117.774854
662.205833	-117.527077
662.352138	-117.587495
662.498509	-117.975657
662.644944	-118.730985
662.791443	-119.926620
662.938008	-121.700569
663.084638	-124.339617
663.231332	-128.576141
663.378091	-137.302890
663.524915	-137.203628
663.671804	-128.803426
663.818759	-124.789619
663.965778	-122.329788
664.112863	-120.691633
664.260012	-119.578559
664.407227	-118.838707
664.554507	-118.381914
664.701853	-118.148592
664.849264	-118.096043
664.996740	-118.192173
665.144282	-118.413181
665.291889	-118.743835
665.439561	-119.179273
665.587300	-119.727041
665.735103	-120.408185
665.882973	-121.257026
666.030908	-122.320039
666.178909	-123.653670
666.326976	-125.315357
666.475109	-127.318413
666.623307	-129.438109
666.771571	-130.744542
666.919902	-130.126622
667.068298	-128.289827
667.216761	-126.392866
667.365289	-124.822427
667.513884	-123.619831
667.662545	-122.756882
667.811272	-122.201004
667.960065	-121.917277
668.108925	-121.849347
668.257851	-121.887928
668.406843	-121.845334
668.555902	-121.497800
668.705027	-120.737727
668.854219	-119.676956
669.003478	-118.539078
669.152803	-117.507170
669.302195	-116.681386
669.451653	-116.101898
669.601179	-115.776599
669.750771	-115.698110
669.900430	-115.852460
670.050156	-116.223322
670.199949	-116.793963
670.349808	-117.547453
670.499735	-118.464811
670.649729	-119.520619
670.799790	-120.676899
670.949918	-121.879887
671.100114	-123.069747
671.250377	-124.211528
671.400707	-125.335445
671.551104	-126.554745
671.701569	-128.053264
671.852101	-130.082827
672.002700	-133.041005
672.153368	-137.841730
672.304102	-148.565262
672.454905	-145.022765
672.605775	-137.801815
672.756713	-134.543289
672.907718	-132.734658
673.058791	-131.650510
673.209933	-130.903114
673.361142	-130.186904
673.512419	-129.251988
673.663764	-127.982224
673.815177	-126.440593
673.966658	-124.787749
674.118207	-123.170684
674.269825	-121.679305
674.421510	-120.354014
674.573264	-119.204445
674.725086	-118.223883
674.876977	-117.398102
675.028936	-116.710530
675.180963	-116.145312
675.333059	-115.689007
675.485224	-115.331240
675.637457	-115.064473
675.789758	-114.882990
675.942129	-114.781289
676.094568	-114.752304
676.247075	-114.785937
676.399652	-114.868601
676.552298	-114.984527
676.705012	-115.119301
676.857795	-115.265162
677.010648	-115.426448
677.163569	-115.623119
677.316560	-115.891412
677.469619	-116.282809
677.622748	-116.864096
677.775946	-117.722063
677.929214	-118.978159
678.082551	-120.826450
678.235957	-123.641310
678.389432	-128.369196
678.542977	-137.708236
678.696592	-131.712114
678.850276	-125.560328
679.004030	-122.282452
679.157853	-120.335882
679.311746	-119.220624
679.465709	-118.732864
679.619742	-118.791743
679.773844	-119.394299
679.928017	-120.619531
680.082259	-122.680253
680.236571	-126.069604
680.390954	-131.427892
680.545406	-130.823439
680.699929	-124.969092
680.854522	-121.123313
681.009185	-118.596906
681.163918	-116.913727
681.318722	-115.853546
681.473596	-115.307956
681.628540	-115.222430
681.783555	-115.570214
681.938641	-116.333583
682.093797	-117.471958
682.249023	-118.838936
682.404321	-120.012144
682.559689	-120.295539
682.715128	-119.473583
682.870637	-118.145213
683.026218	-116.886576
683.181869	-115.944888
683.337591	-115.405238
683.493385	-115.315216
683.649249	-115.735581
683.805185	-116.760324
683.961191	-118.494053
684.117269	-120.732115
684.273418	-121.519202
684.429639	-118.973784
684.585930	-115.712854
684.742294	-113.072300
684.898728	-111.089722
685.055234	-109.642338
685.211812	-108.632379
685.368461	-107.996066
685.525182	-107.696204
685.681975	-107.717542
685.838839	-108.066247
685.995775	-108.773665
686.152783	-109.906256
686.309863	-111.587442
686.467014	-114.044129
686.624238	-117.669026
686.781534	-122.220304
686.938902	-121.295207
687.096342	-116.976537
687.253854	-113.962141
687.411438	-112.046972
687.569095	-110.896255
687.726824	-110.328632
687.884626	-110.247253
688.042499	-110.598675
688.200446	-111.347828
688.358465	-112.448548
688.516556	-113.780719
688.674720	-115.024087
688.832957	-115.604963
688.991266	-115.172842
689.149649	-114.095166
689.308104	-112.933065
689.466632	-111.988702
689.625233	-111.368568
689.783906	-111.105534
689.942653	-111.215884
690.101473	-111.720678
690.260367	-112.654470
690.419333	-114.067211
690.578372	-116.002495
690.737485	-118.348803
690.896672	-120.238555
691.055931	-119.932343
691.215264	-117.914716
691.374671	-115.817925
691.534151	-114.135035
691.693704	-112.869249
691.853332	-111.950976
692.013033	-111.322886
692.172807	-110.950354
692.332656	-110.819153
692.492578	-110.931674
692.652575	-111.303614
692.812645	-111.961557
692.972789	-112.941512
693.133007	-114.287807
693.293300	-116.049427
693.453666	-118.262796
693.614107	-120.883006
693.774622	-123.576304
693.935211	-125.510164
694.095875	-126.163760
694.256613	-126.112332
694.417426	-125.613957
694.578313	-124.073827
694.739274	-121.436333
694.900311	-118.527898
695.061421	-115.908285
695.222607	-113.726693
695.383868	-111.978410
695.545203	-110.624635
695.706613	-109.626651
695.868098	-108.953134
696.029658	-108.579990
696.191293	-108.487613
696.353003	-108.655703
696.514789	-109.053899
696.676649	-109.625969
696.838585	-110.269237
697.000596	-110.827761
697.162682	-111.141748
697.324844	-111.157693
697.487081	-110.983127
697.649394	-110.807734
697.811782	-110.801066
697.974246	-111.079263
698.136786	-111.715967
698.299401	-112.748718
698.462092	-114.128447
698.624859	-115.497667
698.787702	-115.865717
698.950621	-114.536645
699.113616	-112.360213
699.276686	-110.234691
699.439833	-108.444113
699.603056	-107.017330
699.766355	-105.925107
699.929731	-105.132242
700.093183	-104.607718
700.256711	-104.325474
700.420315	-104.263895
700.583996	-104.405836
700.747754	-104.739443
700.911588	-105.259651
701.075499	-105.970172
701.239486	-106.885564
701.403550	-108.032159
701.567691	-109.443943
701.731909	-111.140149
701.896203	-113.041816
702.060575	-114.747538
702.225024	-115.412256
702.389549	-114.719192
702.554152	-113.459491
702.718832	-112.322351
702.883589	-111.517311
703.048424	-111.015171
703.213335	-110.670704
703.378324	-110.259764
703.543391	-109.557392
703.708535	-108.482117
703.873757	-107.146773
704.039056	-105.740381
704.204433	-104.410744
704.369887	-103.240429
704.535420	-102.267618
704.701030	-101.507654
704.866718	-100.965526
705.032484	-100.641820
705.198328	-100.535467
705.364250	-100.645392
705.530250	-100.972289
705.696328	-101.521333
705.862485	-102.306718
706.028720	-103.359500
706.195033	-104.742029
706.361424	-106.577811
706.527894	-109.125640
706.694442	-113.021752
706.861069	-120.499218
707.027775	-123.564071
707.194559	-114.157085
707.361422	-109.665135
707.528363	-106.907547
707.695384	-105.088737
707.862483	-103.915496
708.029661	-103.257692
708.196918	-103.056625
708.364254	-103.295246
708.531670	-103.991924
708.699164	-105.210490
708.866738	-107.093908
709.034391	-109.951452
709.202123	-114.438103
709.369935	-119.508813
709.537826	-115.151792
709.705796	-110.499063
709.873847	-107.607879
710.041976	-105.797732
710.210186	-104.743139
710.378475	-104.301410
710.546844	-104.419999
710.715292	-105.106462
710.883821	-106.431964
711.052429	-108.574533
711.221118	-111.965823
711.389887	-117.818617
711.558735	-123.906785
711.727664	-116.090179
711.896673	-111.503790
712.065763	-108.798884
712.234932	-107.073208
712.404183	-105.982217
712.573513	-105.373710
712.742924	-105.177911
712.912416	-105.366487
713.081988	-105.935123
713.251641	-106.895171
713.421375	-108.264558
713.591190	-110.034688
713.761085	-112.031195
713.931061	-113.521696
714.101119	-113.305308
714.271257	-111.587821
714.441476	-109.548661
714.611777	-107.721990
714.782159	-106.203011
714.952622	-104.982915
715.123166	-104.048610
715.293792	-103.401082
715.464499	-103.054656
715.635288	-103.033570
715.806158	-103.369869
715.977110	-104.102919
716.148143	-105.278100
716.319259	-106.933996
716.490456	-109.032042
716.661735	-111.172533
716.833096	-112.144360
717.004538	-111.195723
717.176063	-109.448341
717.347670	-107.812760
717.519359	-106.483117
717.691130	-105.427968
717.862984	-104.585650
718.034920	-103.905929
718.206938	-103.354528
718.379039	-102.911789
718.551222	-102.571788
718.723488	-102.341203
718.895836	-102.236219
719.068267	-102.277498
719.240781	-102.484868
719.413377	-102.873523
719.586057	-103.452679
719.758819	-104.226785
719.931664	-105.198897
720.104593	-106.375495
720.277604	-107.771586
720.450699	-109.413793
720.623876	-111.330165
720.797137	-113.463617
720.970482	-115.263007
721.143910	-115.165098
721.317421	-112.847463
721.491016	-109.982693
721.664694	-107.418740
721.838456	-105.296952
722.012302	-103.594493
722.186231	-102.265836
722.360244	-101.267635
722.534342	-100.562459
722.708523	-100.120392
