# 2022-03-21_15.54.34
# shape = sech2
# FWHM_ps = 0.1
# carrier_nm = 1542
# frep_MHz = 12126
# pow_mW = 8000
# GDD = 0.0
# propa_len = 0.09000000000000001
# untap_len = 0.01
# taper_len = 0.03
# waist_len = 0.02
# uptap_len = 0.02
# untap_scale = 1.0
# waist_scale = 0.2388888888888889
# workingDir = NL_20110305_12 (Spirou)
# axis = slow
# window_ps = 10.0
# steps = 200
# points = 21700
# 
# wavelength [nm]	 power spectral density [dB]
600.043425	-86.580173
600.163550	-86.560317
600.283723	-86.549215
600.403943	-86.542332
600.524212	-86.537033
600.644529	-86.533613
600.764895	-86.533275
600.885308	-86.536625
601.005770	-86.545147
601.126280	-86.562561
601.246839	-86.591270
601.367446	-86.632767
601.488101	-86.684165
601.608804	-86.741392
601.729557	-86.803252
601.850357	-86.866897
601.971206	-86.931522
602.092104	-86.996409
602.213050	-87.061586
602.334045	-87.127871
602.455089	-87.197160
602.576181	-87.268721
602.697322	-87.341722
602.818511	-87.419966
602.939749	-87.505838
603.061036	-87.599992
603.182372	-87.701075
603.303757	-87.805493
603.425191	-87.914252
603.546673	-88.023767
603.668204	-88.130109
603.789785	-88.230541
603.911414	-88.326778
604.033092	-88.419709
604.154820	-88.511430
604.276596	-88.603205
604.398422	-88.694276
604.520297	-88.787382
604.642220	-88.881164
604.764193	-88.971845
604.886216	-89.059471
605.008287	-89.139629
605.130408	-89.210959
605.252578	-89.273353
605.374798	-89.323689
605.497066	-89.364203
605.619385	-89.397289
605.741752	-89.426873
605.864169	-89.456633
605.986636	-89.485407
606.109152	-89.513499
606.231718	-89.542954
606.354333	-89.570760
606.476998	-89.591620
606.599712	-89.599007
606.722476	-89.589997
606.845290	-89.562397
606.968154	-89.515491
607.091067	-89.451795
607.214030	-89.376123
607.337043	-89.291893
607.460106	-89.203224
607.583219	-89.114767
607.706381	-89.027974
607.829594	-88.941756
607.952856	-88.847259
608.076169	-88.738724
608.199531	-88.608343
608.322944	-88.455744
608.446407	-88.280336
608.569920	-88.085025
608.693483	-87.879106
608.817096	-87.670032
608.940759	-87.465210
609.064473	-87.268980
609.188237	-87.084418
609.312051	-86.912097
609.435916	-86.751283
609.559831	-86.596608
609.683796	-86.443065
609.807812	-86.284931
609.931878	-86.118947
610.055995	-85.947042
610.180162	-85.768926
610.304380	-85.586753
610.428648	-85.404613
610.552967	-85.228028
610.677337	-85.064576
610.801757	-84.918918
610.926228	-84.790744
611.050750	-84.679298
611.175323	-84.583958
611.299946	-84.500355
611.424620	-84.424290
611.549345	-84.351795
611.674121	-84.278127
611.798948	-84.200529
611.923826	-84.119386
612.048755	-84.035563
612.173734	-83.953680
612.298765	-83.879168
612.423847	-83.815454
612.548980	-83.766283
612.674165	-83.735389
612.799400	-83.722939
612.924687	-83.727476
613.050025	-83.748909
613.175414	-83.781817
613.300854	-83.821418
613.426346	-83.866072
613.551889	-83.910924
613.677484	-83.955953
613.803130	-83.999775
613.928827	-84.042435
614.054576	-84.084063
614.180377	-84.128145
614.306229	-84.177277
614.432132	-84.233374
614.558087	-84.297735
614.684094	-84.368222
614.810153	-84.445511
614.936263	-84.530575
615.062425	-84.618527
615.188639	-84.708788
615.314904	-84.798425
615.441222	-84.886377
615.567591	-84.971443
615.694012	-85.050192
615.820486	-85.120027
615.947011	-85.181541
616.073588	-85.233542
616.200217	-85.274885
616.326898	-85.305969
616.453632	-85.325398
616.580417	-85.336844
616.707255	-85.341764
616.834144	-85.341653
616.961086	-85.337648
617.088081	-85.332281
617.215127	-85.327106
617.342226	-85.324013
617.469378	-85.319564
617.596581	-85.313094
617.723837	-85.305036
617.851146	-85.293870
617.978507	-85.277012
618.105920	-85.254546
618.233386	-85.223737
618.360905	-85.187577
618.488476	-85.146420
618.616100	-85.098403
618.743777	-85.045550
618.871506	-84.989425
618.999288	-84.930227
619.127123	-84.869015
619.255011	-84.801252
619.382951	-84.726894
619.510945	-84.649282
619.638991	-84.566752
619.767090	-84.479744
619.895243	-84.390855
620.023448	-84.301093
620.151706	-84.215243
620.280017	-84.134826
620.408382	-84.060558
620.536799	-83.994452
620.665270	-83.936952
620.793794	-83.885312
620.922371	-83.838055
621.051002	-83.787478
621.179686	-83.731488
621.308423	-83.667137
621.437213	-83.590455
621.566057	-83.500326
621.694954	-83.396744
621.823905	-83.283151
621.952909	-83.163232
622.081967	-83.039134
622.211079	-82.912855
622.340244	-82.791362
622.469462	-82.675872
622.598735	-82.567059
622.728061	-82.462858
622.857441	-82.362201
622.986874	-82.265136
623.116361	-82.172022
623.245903	-82.080903
623.375498	-81.989849
623.505147	-81.900360
623.634850	-81.813639
623.764606	-81.729825
623.894417	-81.647677
624.024282	-81.568821
624.154201	-81.494704
624.284174	-81.425511
624.414202	-81.360066
624.544283	-81.297826
624.674419	-81.240317
624.804609	-81.187983
624.934853	-81.139837
625.065151	-81.096463
625.195504	-81.058111
625.325911	-81.025586
625.456373	-80.998768
625.586889	-80.975615
625.717460	-80.955153
625.848085	-80.937196
625.978764	-80.922201
626.109498	-80.908687
626.240287	-80.898502
626.371131	-80.893744
626.502029	-80.895970
626.632982	-80.906200
626.763989	-80.926641
626.895052	-80.958274
627.026169	-81.000615
627.157341	-81.050902
627.288568	-81.106057
627.419850	-81.163566
627.551187	-81.220914
627.682579	-81.273650
627.814026	-81.320364
627.945528	-81.362717
628.077085	-81.404443
628.208697	-81.447059
628.340364	-81.493182
628.472087	-81.546391
628.603865	-81.607460
628.735698	-81.673368
628.867586	-81.741396
628.999530	-81.808455
629.131529	-81.868584
629.263584	-81.918011
629.395694	-81.953529
629.527859	-81.975739
629.660080	-81.987253
629.792357	-81.989578
629.924689	-81.986781
630.057077	-81.980943
630.189520	-81.969633
630.322019	-81.952813
630.454574	-81.928574
630.587184	-81.893333
630.719851	-81.844819
630.852573	-81.781951
630.985351	-81.706440
631.118185	-81.621974
631.251075	-81.531950
631.384021	-81.440909
631.517023	-81.351389
631.650081	-81.261884
631.783195	-81.171141
631.916365	-81.073652
632.049592	-80.965919
632.182874	-80.846327
632.316213	-80.713338
632.449608	-80.567143
632.583059	-80.413078
632.716567	-80.256820
632.850131	-80.105548
632.983751	-79.963649
633.117428	-79.832552
633.251161	-79.713195
633.384951	-79.602112
633.518797	-79.495580
633.652700	-79.390347
633.786660	-79.282590
633.920676	-79.168979
634.054749	-79.050091
634.188879	-78.928914
634.323065	-78.808533
634.457308	-78.693080
634.591608	-78.586609
634.725965	-78.490768
634.860379	-78.405568
634.994850	-78.329150
635.129377	-78.259207
635.263962	-78.193260
635.398604	-78.129141
635.533303	-78.066195
635.668058	-78.004599
635.802872	-77.947325
635.937742	-77.895897
636.072669	-77.853070
636.207654	-77.820084
636.342696	-77.797300
636.477796	-77.782921
636.612953	-77.774528
636.748167	-77.770307
636.883439	-77.767340
637.018768	-77.763602
637.154155	-77.759669
637.289599	-77.757918
637.425101	-77.759993
637.560660	-77.769115
637.696277	-77.789379
637.831952	-77.821981
637.967685	-77.866546
638.103475	-77.920855
638.239324	-77.982863
638.375230	-78.048811
638.511194	-78.114897
638.647215	-78.179212
638.783295	-78.239764
638.919433	-78.298014
639.055629	-78.355749
639.191883	-78.414812
639.328195	-78.477986
639.464565	-78.548077
639.600994	-78.623548
639.737481	-78.703570
639.874025	-78.786375
640.010629	-78.869555
640.147290	-78.949664
640.284010	-79.024177
640.420789	-79.091941
640.557625	-79.152052
640.694521	-79.203248
640.831474	-79.246197
640.968487	-79.279969
641.105558	-79.304350
641.242687	-79.316932
641.379876	-79.314337
641.517123	-79.293867
641.654429	-79.254206
641.791793	-79.195059
641.929216	-79.118223
642.066699	-79.025319
642.204240	-78.917669
642.341840	-78.798749
642.479499	-78.672097
642.617217	-78.537773
642.754994	-78.397801
642.892830	-78.252853
643.030726	-78.102042
643.168680	-77.945284
643.306694	-77.779930
643.444767	-77.606959
643.582899	-77.427921
643.721091	-77.243835
643.859342	-77.055900
643.997652	-76.868495
644.136022	-76.683888
644.274451	-76.504775
644.412940	-76.331911
644.551488	-76.167188
644.690096	-76.010526
644.828763	-75.861998
644.967490	-75.720800
645.106277	-75.586408
645.245124	-75.458283
645.384030	-75.336686
645.522997	-75.222617
645.662023	-75.117679
645.801109	-75.022547
645.940255	-74.937644
646.079460	-74.862361
646.218726	-74.796178
646.358052	-74.738845
646.497438	-74.688893
646.636884	-74.646144
646.776391	-74.610338
646.915957	-74.581338
647.055584	-74.561476
647.195271	-74.552195
647.335019	-74.555224
647.474826	-74.572188
647.614695	-74.602264
647.754623	-74.645144
647.894612	-74.699352
648.034662	-74.762654
648.174772	-74.833929
648.314943	-74.911728
648.455174	-74.994840
648.595466	-75.084434
648.735819	-75.180960
648.876233	-75.285551
649.016707	-75.397231
649.157242	-75.514617
649.297838	-75.635398
649.438495	-75.756432
649.579213	-75.874553
649.719992	-75.986634
649.860832	-76.092454
650.001733	-76.191989
650.142695	-76.286398
650.283718	-76.377489
650.424803	-76.465646
650.565949	-76.549390
650.707156	-76.623846
650.848424	-76.684711
650.989754	-76.724433
651.131145	-76.738601
651.272597	-76.723377
651.414111	-76.679569
651.555687	-76.609103
651.697324	-76.517593
651.839022	-76.409615
651.980782	-76.289899
652.122604	-76.160290
652.264488	-76.021563
652.406433	-75.872901
652.548441	-75.715368
652.690510	-75.549609
652.832640	-75.377738
652.974833	-75.202163
653.117088	-75.026808
653.259405	-74.855248
653.401784	-74.690049
653.544224	-74.532008
653.686727	-74.379575
653.829293	-74.233230
653.971920	-74.091668
654.114609	-73.953936
654.257361	-73.821194
654.400175	-73.694530
654.543052	-73.575404
654.685991	-73.466577
654.828992	-73.368764
654.972056	-73.282148
655.115183	-73.206604
655.258372	-73.140913
655.401623	-73.083732
655.544937	-73.034569
655.688314	-72.992871
655.831754	-72.958010
655.975256	-72.930772
656.118822	-72.911843
656.262450	-72.901522
656.406141	-72.899600
656.549894	-72.905761
656.693711	-72.918444
656.837591	-72.937513
656.981534	-72.960983
657.125540	-72.987444
657.269610	-73.017037
657.413742	-73.049470
657.557938	-73.083308
657.702196	-73.118114
657.846519	-73.151626
657.990904	-73.182505
658.135353	-73.209061
658.279866	-73.229706
658.424441	-73.244121
658.569081	-73.252304
658.713784	-73.254808
658.858550	-73.252870
659.003381	-73.247727
659.148274	-73.239916
659.293232	-73.228997
659.438253	-73.214494
659.583339	-73.194469
659.728488	-73.167774
659.873701	-73.132839
660.018978	-73.089215
660.164318	-73.037434
660.309723	-72.977677
660.455192	-72.911029
660.600725	-72.840190
660.746323	-72.766447
660.891984	-72.692504
661.037710	-72.619268
661.183500	-72.548125
661.329354	-72.480386
661.475272	-72.416592
661.621255	-72.356133
661.767303	-72.299560
661.913415	-72.247548
662.059591	-72.200539
662.205833	-72.158343
662.352138	-72.121119
662.498509	-72.088863
662.644944	-72.061689
662.791443	-72.038201
662.938008	-72.017705
663.084638	-71.999058
663.231332	-71.982365
663.378091	-71.967513
663.524915	-71.954900
663.671804	-71.944702
663.818759	-71.937915
663.965778	-71.933649
664.112863	-71.932230
664.260012	-71.932574
664.407227	-71.933337
664.554507	-71.933743
664.701853	-71.932450
664.849264	-71.928979
664.996740	-71.922563
665.144282	-71.913189
665.291889	-71.899812
665.439561	-71.882521
665.587300	-71.859856
665.735103	-71.830640
665.882973	-71.794029
666.030908	-71.749362
666.178909	-71.696908
666.326976	-71.637719
666.475109	-71.572339
666.623307	-71.501901
666.771571	-71.427481
666.919902	-71.349341
667.068298	-71.268283
667.216761	-71.184480
667.365289	-71.098005
667.513884	-71.009414
667.662545	-70.919893
667.811272	-70.830749
667.960065	-70.743281
668.108925	-70.658644
668.257851	-70.577166
668.406843	-70.498916
668.555902	-70.423969
668.705027	-70.352428
668.854219	-70.283332
669.003478	-70.217608
669.152803	-70.155182
669.302195	-70.095858
669.451653	-70.039457
669.601179	-69.986370
669.750771	-69.935567
669.900430	-69.887747
670.050156	-69.842700
670.199949	-69.801417
670.349808	-69.765939
670.499735	-69.737308
670.649729	-69.716393
670.799790	-69.703035
670.949918	-69.695691
671.100114	-69.692070
671.250377	-69.690931
671.400707	-69.689517
671.551104	-69.688520
671.701569	-69.688404
671.852101	-69.691114
672.002700	-69.698103
672.153368	-69.710180
672.304102	-69.726369
672.454905	-69.744979
672.605775	-69.764695
672.756713	-69.783456
672.907718	-69.800009
673.058791	-69.814609
673.209933	-69.828209
673.361142	-69.842345
673.512419	-69.857581
673.663764	-69.873731
673.815177	-69.889859
673.966658	-69.904919
674.118207	-69.917401
674.269825	-69.926393
674.421510	-69.932244
674.573264	-69.936437
674.725086	-69.938970
674.876977	-69.939240
675.028936	-69.936167
675.180963	-69.926126
675.333059	-69.904498
675.485224	-69.868038
675.637457	-69.814661
675.789758	-69.744698
675.942129	-69.661439
676.094568	-69.568326
676.247075	-69.468662
676.399652	-69.363993
676.552298	-69.253967
676.705012	-69.138376
676.857795	-69.015519
677.010648	-68.885311
677.163569	-68.748896
677.316560	-68.608399
677.469619	-68.466838
677.622748	-68.326811
677.775946	-68.190296
677.929214	-68.057783
678.082551	-67.929984
678.235957	-67.807102
678.389432	-67.689879
678.542977	-67.579994
678.696592	-67.479311
678.850276	-67.389824
679.004030	-67.312504
679.157853	-67.248296
679.311746	-67.196522
679.465709	-67.155927
679.619742	-67.126753
679.773844	-67.108869
679.928017	-67.103684
680.082259	-67.112750
680.236571	-67.137817
680.390954	-67.179691
680.545406	-67.238780
680.699929	-67.314378
680.854522	-67.404562
681.009185	-67.508102
681.163918	-67.623238
681.318722	-67.748248
681.473596	-67.881921
681.628540	-68.021555
681.783555	-68.164372
681.938641	-68.306414
682.093797	-68.442080
682.249023	-68.565835
682.404321	-68.671538
682.559689	-68.754758
682.715128	-68.811057
682.870637	-68.837642
683.026218	-68.832272
683.181869	-68.793907
683.337591	-68.721247
683.493385	-68.613969
683.649249	-68.473600
683.805185	-68.303341
683.961191	-68.108340
684.117269	-67.894851
684.273418	-67.669069
684.429639	-67.437503
684.585930	-67.205185
684.742294	-66.976125
684.898728	-66.753476
685.055234	-66.540404
685.211812	-66.338505
685.368461	-66.149536
685.525182	-65.975538
685.681975	-65.818075
685.838839	-65.678948
685.995775	-65.559586
686.152783	-65.460924
686.309863	-65.384054
686.467014	-65.329140
686.624238	-65.296166
686.781534	-65.286030
686.938902	-65.297945
687.096342	-65.332208
687.253854	-65.387927
687.411438	-65.464808
687.569095	-65.562149
687.726824	-65.678111
687.884626	-65.811112
688.042499	-65.959623
688.200446	-66.120839
688.358465	-66.291346
688.516556	-66.466396
688.674720	-66.641362
688.832957	-66.810242
688.991266	-66.965009
689.149649	-67.097267
689.308104	-67.199833
689.466632	-67.266065
689.625233	-67.291054
689.783906	-67.272603
689.942653	-67.211748
690.101473	-67.110265
690.260367	-66.972430
690.419333	-66.803364
690.578372	-66.607342
690.737485	-66.391099
690.896672	-66.160850
691.055931	-65.923873
691.215264	-65.687255
691.374671	-65.457112
691.534151	-65.239238
691.693704	-65.037444
691.853332	-64.854500
692.013033	-64.691551
692.172807	-64.549891
692.332656	-64.430115
692.492578	-64.333065
692.652575	-64.259204
692.812645	-64.208378
692.972789	-64.180904
693.133007	-64.175623
693.293300	-64.191255
693.453666	-64.227347
693.614107	-64.282387
693.774622	-64.356119
693.935211	-64.447887
694.095875	-64.555775
694.256613	-64.677434
694.417426	-64.808610
694.578313	-64.943922
694.739274	-65.076613
694.900311	-65.200641
695.061421	-65.310206
695.222607	-65.400694
695.383868	-65.468586
695.545203	-65.510326
695.706613	-65.523471
695.868098	-65.506000
696.029658	-65.456535
696.191293	-65.375963
696.353003	-65.266416
696.514789	-65.131857
696.676649	-64.977017
696.838585	-64.807451
697.000596	-64.629246
697.162682	-64.447866
697.324844	-64.268411
697.487081	-64.095641
697.649394	-63.933458
697.811782	-63.785785
697.974246	-63.655210
698.136786	-63.543513
698.299401	-63.451473
698.462092	-63.379304
698.624859	-63.326344
698.787702	-63.292057
698.950621	-63.276411
699.113616	-63.279786
699.276686	-63.301437
699.439833	-63.341322
699.603056	-63.397141
699.766355	-63.466267
699.929731	-63.544340
700.093183	-63.626444
700.256711	-63.707979
700.420315	-63.784373
700.583996	-63.852308
700.747754	-63.908485
700.911588	-63.950088
701.075499	-63.973840
701.239486	-63.977535
701.403550	-63.959130
701.567691	-63.918052
701.731909	-63.855868
701.896203	-63.774595
702.060575	-63.677639
702.225024	-63.568979
702.389549	-63.452212
702.554152	-63.330868
702.718832	-63.208519
702.883589	-63.088693
703.048424	-62.974776
703.213335	-62.869819
703.378324	-62.776267
703.543391	-62.695267
703.708535	-62.627561
703.873757	-62.572775
704.039056	-62.531108
704.204433	-62.502545
704.369887	-62.486996
704.535420	-62.484460
704.701030	-62.493631
704.866718	-62.511503
705.032484	-62.535346
705.198328	-62.561321
705.364250	-62.586565
705.530250	-62.609538
705.696328	-62.629336
705.862485	-62.644608
706.028720	-62.653819
706.195033	-62.654514
706.361424	-62.643991
706.527894	-62.620566
706.694442	-62.583391
706.861069	-62.533735
707.027775	-62.473865
707.194559	-62.406279
707.361422	-62.332972
707.528363	-62.255842
707.695384	-62.176487
707.862483	-62.096901
708.029661	-62.019726
708.196918	-61.947266
708.364254	-61.881940
708.531670	-61.824422
708.699164	-61.775133
708.866738	-61.734376
709.034391	-61.702172
709.202123	-61.678469
709.369935	-61.663485
709.537826	-61.656836
709.705796	-61.657106
709.873847	-61.662511
710.041976	-61.670438
710.210186	-61.678007
710.378475	-61.682626
710.546844	-61.682776
710.715292	-61.676520
710.883821	-61.663274
711.052429	-61.642102
711.221118	-61.612078
711.389887	-61.572993
711.558735	-61.524639
711.727664	-61.467422
711.896673	-61.402818
712.065763	-61.332800
712.234932	-61.259661
712.404183	-61.185900
712.573513	-61.113440
712.742924	-61.044635
712.912416	-60.980880
713.081988	-60.923623
713.251641	-60.873671
713.421375	-60.831675
713.591190	-60.797922
713.761085	-60.773008
713.931061	-60.757168
714.101119	-60.750112
714.271257	-60.750743
714.441476	-60.757386
714.611777	-60.767826
714.782159	-60.779146
714.952622	-60.788728
715.123166	-60.794694
715.293792	-60.795202
715.464499	-60.788703
715.635288	-60.774376
715.806158	-60.750955
715.977110	-60.717978
716.148143	-60.675717
716.319259	-60.624664
716.490456	-60.566068
716.661735	-60.500902
716.833096	-60.430928
717.004538	-60.358727
717.176063	-60.287145
717.347670	-60.218939
717.519359	-60.156144
717.691130	-60.099783
717.862984	-60.050372
718.034920	-60.008776
718.206938	-59.975548
718.379039	-59.950798
718.551222	-59.933734
718.723488	-59.922535
718.895836	-59.914844
719.068267	-59.908738
719.240781	-59.902343
719.413377	-59.894397
719.586057	-59.883577
719.758819	-59.868375
719.931664	-59.846974
720.104593	-59.817722
720.277604	-59.779842
720.450699	-59.734271
720.623876	-59.682327
720.797137	-59.625749
720.970482	-59.565996
721.143910	-59.505069
721.317421	-59.445408
721.491016	-59.390479
721.664694	-59.343474
721.838456	-59.306662
722.012302	-59.280798
722.186231	-59.265657
722.360244	-59.260883
722.534342	-59.266079
722.708523	-59.280522
722.882788	-59.302354
723.057137	-59.328653
723.231570	-59.355019
723.406088	-59.377435
723.580689	-59.392044
723.755375	-59.395471
723.930146	-59.384282
724.105000	-59.354751
724.279940	-59.303712
724.454963	-59.229626
724.630072	-59.133797
724.805265	-59.020074
724.980543	-58.894146
725.155905	-58.761659
725.331353	-58.627899
725.506885	-58.497061
725.682503	-58.373874
725.858205	-58.263175
726.033993	-58.170042
726.209865	-58.099401
726.385823	-58.054275
726.561866	-58.036283
726.737995	-58.045509
726.914209	-58.081284
727.090508	-58.142959
727.266893	-58.229166
727.443364	-58.337015
727.619920	-58.460884
727.796562	-58.592309
727.973290	-58.720651
728.150103	-58.835331
728.327003	-58.926875
728.503988	-58.986768
728.681060	-59.006936
728.858218	-58.980083
729.035461	-58.901567
729.212791	-58.772715
729.390208	-58.601709
729.567710	-58.401152
729.745299	-58.184663
