# 2022-03-21_22.34.27
# shape = sech2
# FWHM_ps = 0.1
# carrier_nm = 1542
# frep_MHz = 12126
# pow_mW = 8000
# GDD = 0.0
# propa_len = 0.11177777777777778
# untap_len = 0.01
# taper_len = 0.05177777777777778
# waist_len = 0.02
# uptap_len = 0.02
# untap_scale = 1.0
# waist_scale = 0.4
# workingDir = NL_20110305_12 (Spirou)
# axis = slow
# window_ps = 10.0
# steps = 200
# points = 21700
# 
# wavelength [nm]	 power spectral density [dB]
600.043425	-157.092845
600.163550	-157.317067
600.283723	-157.621574
600.403943	-157.760491
600.524212	-157.406693
600.644529	-156.436973
600.764895	-155.084836
600.885308	-153.682403
601.005770	-152.436905
601.126280	-151.426141
601.246839	-150.652960
601.367446	-150.080837
601.488101	-149.651998
601.608804	-149.301858
601.729557	-148.977350
601.850357	-148.655950
601.971206	-148.353610
602.092104	-148.115057
602.213050	-147.994129
602.334045	-148.036516
602.455089	-148.269807
602.576181	-148.697906
602.697322	-149.295007
602.818511	-149.996537
602.939749	-150.689946
603.061036	-151.217223
603.182372	-151.407204
603.303757	-151.140291
603.425191	-150.408950
603.546673	-149.323033
603.668204	-148.054832
603.789785	-146.771689
603.911414	-145.599445
604.033092	-144.619013
604.154820	-143.877978
604.276596	-143.403489
604.398422	-143.211536
604.520297	-143.311914
604.642220	-143.708704
604.764193	-144.393782
604.886216	-145.325577
605.008287	-146.377940
605.130408	-147.262061
605.252578	-147.557934
605.374798	-147.069889
605.497066	-146.073576
605.619385	-144.978143
605.741752	-144.033693
605.864169	-143.344956
605.986636	-142.949712
606.109152	-142.864611
606.231718	-143.105151
606.354333	-143.694588
606.476998	-144.669591
606.599712	-146.086540
606.722476	-148.031223
606.845290	-150.634019
606.968154	-154.081949
607.091067	-158.501695
607.214030	-162.745070
607.337043	-163.245899
607.460106	-161.899196
607.583219	-160.537360
607.706381	-158.397810
607.829594	-155.551552
607.952856	-152.837078
608.076169	-150.666458
608.199531	-149.104118
608.322944	-148.116162
608.446407	-147.657023
608.569920	-147.685907
608.693483	-148.158720
608.817096	-149.001264
608.940759	-150.056233
609.064473	-151.026025
609.188237	-151.552718
609.312051	-151.532887
609.435916	-151.228239
609.559831	-150.955921
609.683796	-150.875498
609.807812	-150.999792
609.931878	-151.259956
610.055995	-151.572903
610.180162	-151.911498
610.304380	-152.345563
610.428648	-153.026868
610.552967	-154.154788
610.677337	-155.983037
610.801757	-158.924444
610.926228	-163.987158
611.050750	-175.378681
611.175323	-168.798923
611.299946	-162.591525
611.424620	-159.292383
611.549345	-156.758078
611.674121	-154.323991
611.798948	-151.933059
611.923826	-149.740870
612.048755	-147.868580
612.173734	-146.359680
612.298765	-145.209207
612.423847	-144.389098
612.548980	-143.860131
612.674165	-143.575937
612.799400	-143.483267
612.924687	-143.520657
613.050025	-143.617663
613.175414	-143.698874
613.300854	-143.697671
613.426346	-143.578323
613.551889	-143.352167
613.677484	-143.072074
613.803130	-142.807866
613.928827	-142.619878
614.054576	-142.541513
614.180377	-142.569875
614.306229	-142.661593
614.432132	-142.738288
614.558087	-142.713048
614.684094	-142.537518
614.810153	-142.236053
614.936263	-141.891203
615.062425	-141.596927
615.188639	-141.421872
615.314904	-141.396788
615.441222	-141.515941
615.567591	-141.743129
615.694012	-142.021323
615.820486	-142.288951
615.947011	-142.501292
616.073588	-142.645712
616.200217	-142.738819
616.326898	-142.808866
616.453632	-142.879550
616.580417	-142.966794
616.707255	-143.087367
616.834144	-143.270041
616.961086	-143.560085
617.088081	-144.013516
617.215127	-144.680966
617.342226	-145.573456
617.469378	-146.583026
617.596581	-147.347433
617.723837	-147.307240
617.851146	-146.333758
617.978507	-144.948405
618.105920	-143.662067
618.233386	-142.710906
618.360905	-142.177180
618.488476	-142.095602
618.616100	-142.501002
618.743777	-143.453192
618.871506	-145.063130
618.999288	-147.536373
619.127123	-151.196143
619.255011	-155.408745
619.382951	-154.268392
619.510945	-150.454974
619.638991	-147.791971
619.767090	-146.120261
619.895243	-145.125268
620.023448	-144.613687
620.151706	-144.468333
620.280017	-144.621476
620.408382	-145.045286
620.536799	-145.746944
620.665270	-146.756578
620.793794	-148.084758
620.922371	-149.578609
621.051002	-150.590401
621.179686	-150.147636
621.308423	-148.478150
621.437213	-146.631802
621.566057	-145.146796
621.694954	-144.162636
621.823905	-143.709089
621.952909	-143.811346
622.081967	-144.525447
622.211079	-145.961676
622.340244	-148.295898
622.469462	-151.527106
622.598735	-153.376639
622.728061	-150.763717
622.857441	-147.585518
622.986874	-145.320038
623.116361	-143.829994
623.245903	-142.904910
623.375498	-142.388056
623.505147	-142.158457
623.634850	-142.115626
623.764606	-142.174698
623.894417	-142.268649
624.024282	-142.353498
624.154201	-142.412561
624.284174	-142.456837
624.414202	-142.519937
624.544283	-142.647602
624.674419	-142.883624
624.804609	-143.254458
624.934853	-143.753641
625.065151	-144.327251
625.195504	-144.866471
625.325911	-145.219848
625.456373	-145.229359
625.586889	-144.772305
625.717460	-143.803331
625.848085	-142.400342
625.978764	-140.754162
626.109498	-139.079043
626.240287	-137.535446
626.371131	-136.215045
626.502029	-135.158765
626.632982	-134.377007
626.763989	-133.862817
626.895052	-133.598663
627.026169	-133.559325
627.157341	-133.713127
627.288568	-134.023627
627.419850	-134.453772
627.551187	-134.973602
627.682579	-135.570028
627.814026	-136.254431
627.945528	-137.064216
628.077085	-138.058869
628.208697	-139.315740
628.340364	-140.931970
628.472087	-143.039121
628.603865	-145.841171
628.735698	-149.689489
628.867586	-154.921612
628.999530	-157.362384
629.131529	-153.577045
629.263584	-150.556729
629.395694	-148.667077
629.527859	-147.420082
629.660080	-146.500720
629.792357	-145.723955
629.924689	-145.007508
630.057077	-144.347064
630.189520	-143.779207
630.322019	-143.349193
630.454574	-143.097278
630.587184	-143.060910
630.719851	-143.284891
630.852573	-143.835363
630.985351	-144.820084
631.118185	-146.427907
631.251075	-149.027015
631.384021	-153.405656
631.517023	-158.614522
631.650081	-153.276369
631.783195	-148.301730
631.916365	-145.245324
632.049592	-143.316112
632.182874	-142.144570
632.316213	-141.520261
632.449608	-141.258502
632.583059	-141.122105
632.716567	-140.811712
632.850131	-140.106823
632.983751	-139.048366
633.117428	-137.871025
633.251161	-136.793953
633.384951	-135.938119
633.518797	-135.349440
633.652700	-135.035517
633.786660	-134.988965
633.920676	-135.200478
634.054749	-135.667695
634.188879	-136.403343
634.323065	-137.443693
634.457308	-138.855235
634.591608	-140.724573
634.725965	-143.040508
634.860379	-145.069590
634.994850	-144.755098
635.129377	-142.371938
635.263962	-139.948667
635.398604	-138.093288
635.533303	-136.817454
635.668058	-136.056651
635.802872	-135.758899
635.937742	-135.889583
636.072669	-136.423727
636.207654	-137.334889
636.342696	-138.578746
636.477796	-140.068118
636.612953	-141.642738
636.748167	-143.055728
636.883439	-144.009641
637.018768	-144.246771
637.154155	-143.691149
637.289599	-142.560679
637.425101	-141.237219
637.560660	-140.033310
637.696277	-139.120254
637.831952	-138.567655
637.967685	-138.384554
638.103475	-138.530020
638.239324	-138.892521
638.375230	-139.255040
638.511194	-139.324690
638.647215	-138.928056
638.783295	-138.189239
638.919433	-137.398800
639.055629	-136.799437
639.191883	-136.536166
639.328195	-136.697246
639.464565	-137.358205
639.600994	-138.613330
639.737481	-140.593247
639.874025	-143.390548
640.010629	-146.265979
640.147290	-146.086350
640.284010	-143.417660
640.420789	-141.098193
640.557625	-139.570956
640.694521	-138.713919
640.831474	-138.408798
640.968487	-138.589231
641.105558	-139.233594
641.242687	-140.358782
641.379876	-142.021151
641.517123	-144.330944
641.654429	-147.501197
641.791793	-151.973956
641.929216	-157.784494
642.066699	-156.111717
642.204240	-150.771254
642.341840	-146.928816
642.479499	-144.084014
642.617217	-141.949115
642.754994	-140.406116
642.892830	-139.394566
643.030726	-138.876127
643.168680	-138.825327
643.306694	-139.229508
643.444767	-140.095466
643.582899	-141.466687
643.721091	-143.462963
643.859342	-146.379509
643.997652	-150.997818
644.136022	-159.131037
644.274451	-155.535406
644.412940	-149.569845
644.551488	-146.391368
644.690096	-144.558838
644.828763	-143.531695
644.967490	-143.034928
645.106277	-142.876065
645.245124	-142.886520
645.384030	-142.904795
645.522997	-142.779805
645.662023	-142.395738
645.801109	-141.720868
645.940255	-140.836298
646.079460	-139.892112
646.218726	-139.028011
646.358052	-138.326257
646.497438	-137.804024
646.636884	-137.421747
646.776391	-137.097887
646.915957	-136.736625
647.055584	-136.269667
647.195271	-135.688243
647.335019	-135.037450
647.474826	-134.383408
647.614695	-133.786809
647.754623	-133.295891
647.894612	-132.949974
648.034662	-132.783162
648.174772	-132.824623
648.314943	-133.096385
648.455174	-133.610481
648.595466	-134.366342
648.735819	-135.348520
648.876233	-136.524933
649.016707	-137.847738
649.157242	-139.261418
649.297838	-140.721316
649.438495	-142.216221
649.579213	-143.779781
649.719992	-145.484761
649.860832	-147.429531
650.001733	-149.700313
650.142695	-152.123407
650.283718	-153.323760
650.424803	-151.618545
650.565949	-148.689807
650.707156	-146.030486
650.848424	-143.874256
650.989754	-142.154940
651.131145	-140.772541
651.272597	-139.630011
651.414111	-138.638960
651.555687	-137.729626
651.697324	-136.865146
651.839022	-136.048354
651.980782	-135.312892
652.122604	-134.704855
652.264488	-134.267494
652.406433	-134.035040
652.548441	-134.034225
652.690510	-134.290385
652.832640	-134.836275
652.974833	-135.722926
653.117088	-137.032231
653.259405	-138.887679
653.401784	-141.417754
653.544224	-144.272209
653.686727	-144.763610
653.829293	-141.789192
653.971920	-138.524537
654.114609	-135.853337
654.257361	-133.705411
654.400175	-131.972814
654.543052	-130.598319
654.685991	-129.558199
654.828992	-128.843124
654.972056	-128.446650
655.115183	-128.359274
655.258372	-128.565652
655.401623	-129.044332
655.544937	-129.771551
655.688314	-130.732131
655.831754	-131.939588
655.975256	-133.464108
656.118822	-135.469338
656.262450	-138.288621
656.406141	-142.714191
656.549894	-152.074268
656.693711	-153.158119
656.837591	-143.951920
656.981534	-139.855497
657.125540	-137.097699
657.269610	-134.817467
657.413742	-132.772605
657.557938	-130.961139
657.702196	-129.439141
657.846519	-128.244329
657.990904	-127.384827
658.135353	-126.848289
658.279866	-126.611299
658.424441	-126.644641
658.569081	-126.914474
658.713784	-127.380343
658.858550	-127.992335
659.003381	-128.692414
659.148274	-129.427140
659.293232	-130.174431
659.438253	-130.972469
659.583339	-131.930764
659.728488	-133.222610
659.873701	-135.082947
660.018978	-137.806456
660.164318	-141.300882
660.309723	-141.950952
660.455192	-138.293936
660.600725	-134.957465
660.746323	-132.588793
660.891984	-130.935230
661.037710	-129.793150
661.183500	-129.030747
661.329354	-128.560581
661.475272	-128.320732
661.621255	-128.262315
661.767303	-128.341978
661.913415	-128.520949
662.059591	-128.772018
662.205833	-129.091823
662.352138	-129.510775
662.498509	-130.093396
662.644944	-130.929634
662.791443	-132.122701
662.938008	-133.766464
663.084638	-135.843992
663.231332	-137.796588
663.378091	-138.059596
663.524915	-136.377361
663.671804	-134.338172
663.818759	-132.675182
663.965778	-131.451897
664.112863	-130.585151
664.260012	-129.981909
664.407227	-129.565092
664.554507	-129.278728
664.701853	-129.088266
664.849264	-128.977433
664.996740	-128.943818
665.144282	-128.996578
665.291889	-129.156283
665.439561	-129.452029
665.587300	-129.909524
665.735103	-130.525284
665.882973	-131.225594
666.030908	-131.830124
666.178909	-132.102245
666.326976	-131.948135
666.475109	-131.540833
666.623307	-131.164241
666.771571	-131.031563
666.919902	-131.251513
667.068298	-131.855547
667.216761	-132.806868
667.365289	-133.963304
667.513884	-134.998855
667.662545	-135.432420
667.811272	-135.015481
667.960065	-134.011580
668.108925	-132.826138
668.257851	-131.691632
668.406843	-130.682652
668.555902	-129.792998
668.705027	-128.982667
668.854219	-128.209488
669.003478	-127.455279
669.152803	-126.738795
669.302195	-126.109008
669.451653	-125.626957
669.601179	-125.350177
669.750771	-125.326042
669.900430	-125.592554
670.050156	-126.183362
670.199949	-127.135464
670.349808	-128.500444
670.499735	-130.364052
670.649729	-132.889384
670.799790	-136.436637
670.949918	-141.989316
671.100114	-150.856019
671.250377	-144.034368
671.400707	-138.710924
671.551104	-135.603895
671.701569	-133.489557
671.852101	-131.934028
672.002700	-130.758389
672.153368	-129.891237
672.304102	-129.314672
672.454905	-129.039574
672.605775	-129.093721
672.756713	-129.517685
672.907718	-130.366459
673.058791	-131.715112
673.209933	-133.661306
673.361142	-136.277943
673.512419	-139.239680
673.663764	-140.686940
673.815177	-139.422991
673.966658	-137.677759
674.118207	-136.582852
674.269825	-136.214485
674.421510	-136.437199
674.573264	-136.993789
674.725086	-137.397340
674.876977	-137.051561
675.028936	-135.875223
675.180963	-134.372265
675.333059	-132.993364
675.485224	-131.941190
675.637457	-131.283395
675.789758	-131.037011
675.942129	-131.195841
676.094568	-131.726071
676.247075	-132.538799
676.399652	-133.447340
676.552298	-134.165528
676.705012	-134.457433
676.857795	-134.342961
677.010648	-134.035764
677.163569	-133.722522
677.316560	-133.477447
677.469619	-133.270615
677.622748	-132.967383
677.775946	-132.357193
677.929214	-131.307327
678.082551	-129.918202
678.235957	-128.437491
678.389432	-127.076476
678.542977	-125.948224
678.696592	-125.091720
678.850276	-124.504735
679.004030	-124.164731
679.157853	-124.038981
679.311746	-124.085985
679.465709	-124.250634
679.619742	-124.459593
679.773844	-124.627423
679.928017	-124.680363
680.082259	-124.585902
680.236571	-124.358831
680.390954	-124.034767
680.545406	-123.641959
680.699929	-123.201574
680.854522	-122.749501
681.009185	-122.350379
681.163918	-122.089577
681.318722	-122.054556
681.473596	-122.320429
681.628540	-122.942624
681.783555	-123.951717
681.938641	-125.343441
682.093797	-127.054871
682.249023	-128.918313
682.404321	-130.612842
682.559689	-131.724543
682.715128	-132.013344
682.870637	-131.606195
683.026218	-130.843527
683.181869	-130.056072
683.337591	-129.483352
683.493385	-129.290925
683.649249	-129.623408
683.805185	-130.671625
683.961191	-132.775032
684.117269	-136.532133
684.273418	-139.770029
684.429639	-134.607264
684.585930	-129.778352
684.742294	-126.562603
684.898728	-124.393304
685.055234	-122.967089
685.211812	-122.120593
685.368461	-121.750582
685.525182	-121.776836
685.681975	-122.122179
685.838839	-122.702820
685.995775	-123.431350
686.152783	-124.234857
686.309863	-125.079462
686.467014	-125.980639
686.624238	-126.987163
686.781534	-128.145268
686.938902	-129.435719
687.096342	-130.620762
687.253854	-131.036350
687.411438	-130.079116
687.569095	-128.209913
687.726824	-126.241355
687.884626	-124.553183
688.042499	-123.231113
688.200446	-122.257736
688.358465	-121.580616
688.516556	-121.127807
688.674720	-120.810560
688.832957	-120.530114
688.991266	-120.197283
689.149649	-119.762362
689.308104	-119.235320
689.466632	-118.676317
689.625233	-118.164318
689.783906	-117.768511
689.942653	-117.534572
690.101473	-117.482040
690.260367	-117.606116
690.419333	-117.880245
690.578372	-118.259146
690.737485	-118.684570
690.896672	-119.097316
691.055931	-119.455798
691.215264	-119.753552
691.374671	-120.024254
691.534151	-120.331315
691.693704	-120.751721
691.853332	-121.366047
692.013033	-122.259593
692.172807	-123.534458
692.332656	-125.334884
692.492578	-127.897803
692.652575	-131.615048
692.812645	-136.080301
692.972789	-134.613738
693.133007	-130.085813
693.293300	-126.758387
693.453666	-124.340474
693.614107	-122.481738
693.774622	-120.996107
693.935211	-119.797492
694.095875	-118.859190
694.256613	-118.187755
694.417426	-117.805597
694.578313	-117.741577
694.739274	-118.028728
694.900311	-118.708093
695.061421	-119.839286
695.222607	-121.522971
695.383868	-123.953368
695.545203	-127.567552
695.706613	-133.578004
695.868098	-140.561107
696.029658	-132.778237
696.191293	-128.296780
696.353003	-125.808898
696.514789	-124.378282
696.676649	-123.670402
696.838585	-123.562324
697.000596	-124.037282
697.162682	-125.162854
697.324844	-127.123210
697.487081	-130.362788
697.649394	-136.170937
697.811782	-143.369579
697.974246	-134.743625
698.136786	-129.999390
698.299401	-127.255669
698.462092	-125.475434
698.624859	-124.236926
698.787702	-123.316866
698.950621	-122.578329
699.113616	-121.931190
699.276686	-121.313819
699.439833	-120.684483
699.603056	-120.020457
699.766355	-119.321900
699.929731	-118.614576
700.093183	-117.946217
700.256711	-117.376415
700.420315	-116.964912
700.583996	-116.763517
700.747754	-116.813784
700.911588	-117.149713
701.075499	-117.804250
701.239486	-118.819887
701.403550	-120.266857
701.567691	-122.277642
701.731909	-125.110667
701.896203	-129.127881
702.060575	-132.215409
702.225024	-128.439772
702.389549	-124.128863
702.554152	-121.013446
702.718832	-118.719362
702.883589	-116.984821
703.048424	-115.662742
703.213335	-114.663513
703.378324	-113.926141
703.543391	-113.405330
703.708535	-113.067036
703.873757	-112.888708
704.039056	-112.861472
704.204433	-112.992101
704.369887	-113.303663
704.535420	-113.835153
704.701030	-114.641664
704.866718	-115.797512
705.032484	-117.406618
705.198328	-119.630549
705.364250	-122.767112
705.530250	-127.515133
705.696328	-136.036486
705.862485	-136.279646
706.028720	-129.670043
706.195033	-126.588061
706.361424	-124.929884
706.527894	-123.957552
706.694442	-123.302197
706.861069	-122.739015
707.027775	-122.141717
707.194559	-121.476200
707.361422	-120.786398
707.528363	-120.163439
707.695384	-119.712876
707.862483	-119.535100
708.029661	-119.721124
708.196918	-120.356375
708.364254	-121.518743
708.531670	-123.228183
708.699164	-125.175035
708.866738	-126.073224
709.034391	-124.826039
709.202123	-122.730183
709.369935	-120.918893
709.537826	-119.619264
709.705796	-118.791669
709.873847	-118.354365
710.041976	-118.220668
710.210186	-118.301989
710.378475	-118.520763
710.546844	-118.845382
710.715292	-119.329832
710.883821	-120.127953
711.052429	-121.489417
711.221118	-123.783823
711.389887	-127.452330
711.558735	-130.253101
711.727664	-126.351920
711.896673	-122.292108
712.065763	-119.633017
712.234932	-117.970585
712.404183	-117.024924
712.573513	-116.625453
712.742924	-116.646628
712.912416	-116.969682
713.081988	-117.459435
713.251641	-117.957833
713.421375	-118.305502
713.591190	-118.392213
713.761085	-118.204695
713.931061	-117.828807
714.101119	-117.404859
714.271257	-117.075920
714.441476	-116.959311
714.611777	-117.142216
714.782159	-117.690780
714.952622	-118.665431
715.123166	-120.140473
715.293792	-122.229579
715.464499	-125.122612
715.635288	-129.120204
715.806158	-134.193831
715.977110	-136.167569
716.148143	-133.711730
716.319259	-131.856064
716.490456	-130.583278
716.661735	-128.889628
716.833096	-126.513613
717.004538	-124.036251
717.176063	-121.926116
717.347670	-120.337097
717.519359	-119.282217
717.691130	-118.726259
717.862984	-118.600972
718.034920	-118.779423
718.206938	-119.031355
718.379039	-119.038079
718.551222	-118.587927
718.723488	-117.778744
718.895836	-116.888396
719.068267	-116.139961
719.240781	-115.642012
719.413377	-115.420304
719.586057	-115.440505
719.758819	-115.606073
719.931664	-115.751737
720.104593	-115.682272
720.277604	-115.290646
720.450699	-114.648779
720.623876	-113.938413
720.797137	-113.322492
720.970482	-112.892669
721.143910	-112.678469
721.317421	-112.668587
721.491016	-112.828470
721.664694	-113.116603
721.838456	-113.502178
722.012302	-113.980862
722.186231	-114.581878
722.360244	-115.363122
722.534342	-116.395614
722.708523	-117.727958
722.882788	-119.271961
