# 2022-03-17_12.02.34
# shape = sech2
# FWHM_ps = 0.27
# carrier_nm = 1542
# frep_MHz = 12126
# pow_mW = 4000
# GDD = 0.0
# propa_len = 0.2
# untap_len = 0.01
# taper_len = 0.13
# waist_len = 0.02
# uptap_len = 0.02
# untap_scale = 1.0
# waist_scale = 0.3
# workingDir = NL_20110305_12 (Spirou)
# axis = slow
# window_ps = 10.0
# steps = 200
# points = 13000
# 
# wavelength [nm]	 power spectral density [dB]
1000.248639	-97.101456
1000.582480	-97.008749
1000.916545	-96.914746
1001.250832	-96.817499
1001.585343	-96.718106
1001.920077	-96.617676
1002.255035	-96.517221
1002.590218	-96.417601
1002.925624	-96.319517
1003.261255	-96.223540
1003.597111	-96.130151
1003.933192	-96.039775
1004.269497	-95.952770
1004.606029	-95.869380
1004.942785	-95.789657
1005.279768	-95.713379
1005.616977	-95.640024
1005.954412	-95.568797
1006.292074	-95.498737
1006.629962	-95.428869
1006.968077	-95.358342
1007.306420	-95.286516
1007.644990	-95.212943
1007.983787	-95.137279
1008.322813	-95.059164
1008.662067	-94.978155
1009.001549	-94.893739
1009.341259	-94.805453
1009.681199	-94.713044
1010.021367	-94.616614
1010.361765	-94.516686
1010.702392	-94.414164
1011.043250	-94.310196
1011.384337	-94.205999
1011.725654	-94.102688
1012.067202	-94.001161
1012.408980	-93.902050
1012.750989	-93.805727
1013.093230	-93.712361
1013.435702	-93.621996
1013.778405	-93.534618
1014.121341	-93.450186
1014.464508	-93.368591
1014.807908	-93.289552
1015.151540	-93.212505
1015.495405	-93.136561
1015.839503	-93.060588
1016.183835	-92.983419
1016.528400	-92.904110
1016.873198	-92.822144
1017.218231	-92.737477
1017.563498	-92.650418
1017.908999	-92.561423
1018.254735	-92.470915
1018.600707	-92.379240
1018.946913	-92.286740
1019.293354	-92.193898
1019.640032	-92.101418
1019.986945	-92.010198
1020.334094	-91.921201
1020.681480	-91.835294
1021.029102	-91.753109
1021.376961	-91.674971
1021.725058	-91.600863
1022.073391	-91.530411
1022.421962	-91.462895
1022.770772	-91.397288
1023.119819	-91.332355
1023.469104	-91.266807
1023.818628	-91.199464
1024.168391	-91.129370
1024.518393	-91.055823
1024.868634	-90.978320
1025.219115	-90.896476
1025.569836	-90.809996
1025.920796	-90.718752
1026.271997	-90.622948
1026.623438	-90.523303
1026.975121	-90.421113
1027.327044	-90.318115
1027.679208	-90.216179
1028.031614	-90.116924
1028.384262	-90.021435
1028.737152	-89.930192
1029.090284	-89.843232
1029.443659	-89.760449
1029.797276	-89.681842
1030.151137	-89.607568
1030.505240	-89.537748
1030.859587	-89.472121
1031.214178	-89.409757
1031.569013	-89.349013
1031.924093	-89.287810
1032.279417	-89.224147
1032.634985	-89.156602
1032.990799	-89.084596
1033.346858	-89.008277
1033.703162	-88.928122
1034.059712	-88.844466
1034.416509	-88.757246
1034.773551	-88.666086
1035.130841	-88.570689
1035.488377	-88.471296
1035.846160	-88.368947
1036.204190	-88.265358
1036.562468	-88.162447
1036.920994	-88.061749
1037.279768	-87.964025
1037.638790	-87.869272
1037.998061	-87.777131
1038.357581	-87.687455
1038.717350	-87.600713
1039.077368	-87.517985
1039.437636	-87.440553
1039.798154	-87.369325
1040.158922	-87.304423
1040.519940	-87.245160
1040.881209	-87.190369
1041.242729	-87.138846
1041.604501	-87.089596
1041.966524	-87.041731
1042.328798	-86.994103
1042.691325	-86.944956
1043.054103	-86.891869
1043.417135	-86.832090
1043.780419	-86.763144
1044.143956	-86.683406
1044.507746	-86.592400
1044.871791	-86.490705
1045.236088	-86.379620
1045.600641	-86.260824
1045.965447	-86.136234
1046.330508	-86.008070
1046.695824	-85.878943
1047.061395	-85.751791
1047.427222	-85.629546
1047.793304	-85.514654
1048.159642	-85.408667
1048.526237	-85.312113
1048.893088	-85.224663
1049.260196	-85.145476
1049.627561	-85.073511
1049.995183	-85.007668
1050.363063	-84.946782
1050.731201	-84.889584
1051.099597	-84.834735
1051.468251	-84.780961
1051.837164	-84.727196
1052.206336	-84.672639
1052.575767	-84.616715
1052.945458	-84.558984
1053.315409	-84.499068
1053.685619	-84.436605
1054.056090	-84.371182
1054.426821	-84.302249
1054.797814	-84.229018
1055.169067	-84.150463
1055.540582	-84.065424
1055.912359	-83.972824
1056.284398	-83.871887
1056.656698	-83.762298
1057.029262	-83.644280
1057.402088	-83.518652
1057.775177	-83.386905
1058.148530	-83.251277
1058.522146	-83.114737
1058.896027	-82.980786
1059.270171	-82.853051
1059.644580	-82.734791
1060.019254	-82.628461
1060.394193	-82.535453
1060.769397	-82.456044
1061.144867	-82.389455
1061.520602	-82.333971
1061.896604	-82.287076
1062.272872	-82.245637
1062.649407	-82.206181
1063.026210	-82.165229
1063.403279	-82.119632
1063.780616	-82.066833
1064.158221	-82.005021
1064.536094	-81.933186
1064.914235	-81.851092
1065.292645	-81.759188
1065.671325	-81.658485
1066.050273	-81.550379
1066.429491	-81.436461
1066.808979	-81.318283
1067.188738	-81.197121
1067.568766	-81.073787
1067.949066	-80.948565
1068.329636	-80.821353
1068.710478	-80.691975
1069.091592	-80.560555
1069.472977	-80.427797
1069.854635	-80.295052
1070.236565	-80.164166
1070.618768	-80.037189
1071.001243	-79.916071
1071.383993	-79.802430
1071.767016	-79.697442
1072.150313	-79.601833
1072.533884	-79.515920
1072.917730	-79.439656
1073.301850	-79.372638
1073.686246	-79.314085
1074.070917	-79.262808
1074.455864	-79.217210
1074.841087	-79.175320
1075.226586	-79.134862
1075.612362	-79.093351
1075.998415	-79.048224
1076.384745	-78.997033
1076.771353	-78.937682
1077.158238	-78.868652
1077.545401	-78.789150
1077.932843	-78.699116
1078.320564	-78.599082
1078.708564	-78.489943
1079.096842	-78.372719
1079.485401	-78.248396
1079.874240	-78.117864
1080.263358	-77.981961
1080.652757	-77.841553
1081.042438	-77.697631
1081.432399	-77.551380
1081.822641	-77.404205
1082.213166	-77.257678
1082.603972	-77.113396
1082.995061	-76.972776
1083.386433	-76.836872
1083.778087	-76.706311
1084.170025	-76.581408
1084.562246	-76.462409
1084.954751	-76.349743
1085.347541	-76.244141
1085.740615	-76.146543
1086.133973	-76.057824
1086.527617	-75.978471
1086.921546	-75.908321
1087.315761	-75.846451
1087.710262	-75.791165
1088.105050	-75.740069
1088.500124	-75.690197
1088.895485	-75.638230
1089.291134	-75.580856
1089.687070	-75.515245
1090.083294	-75.439569
1090.479806	-75.353369
1090.876607	-75.257637
1091.273696	-75.154547
1091.671075	-75.046906
1092.068744	-74.937481
1092.466702	-74.828359
1092.864950	-74.720483
1093.263489	-74.613440
1093.662319	-74.505557
1094.061440	-74.394323
1094.460852	-74.277052
1094.860555	-74.151664
1095.260551	-74.017351
1095.660840	-73.874948
1096.061421	-73.726899
1096.462295	-73.576869
1096.863462	-73.429116
1097.264923	-73.287780
1097.666678	-73.156220
1098.068727	-73.036473
1098.471071	-72.928954
1098.873710	-72.832448
1099.276644	-72.744449
1099.679874	-72.661781
1100.083400	-72.581355
1100.487222	-72.500839
1100.891340	-72.419055
1101.295756	-72.336027
1101.700468	-72.252721
1102.105478	-72.170569
1102.510787	-72.090926
1102.916393	-72.014562
1103.322298	-71.941310
1103.728502	-71.869959
1104.135005	-71.798415
1104.541807	-71.724086
1104.948909	-71.644366
1105.356312	-71.557099
1105.764015	-71.460907
1106.172019	-71.355371
1106.580324	-71.241059
1106.988931	-71.119388
1107.397840	-70.992326
1107.807051	-70.861956
1108.216564	-70.730013
1108.626380	-70.597553
1109.036500	-70.464863
1109.446923	-70.331647
1109.857649	-70.197360
1110.268680	-70.061545
1110.680016	-69.924069
1111.091657	-69.785204
1111.503602	-69.645635
1111.915854	-69.506415
1112.328411	-69.368911
1112.741275	-69.234685
1113.154445	-69.105320
1113.567922	-68.982183
1113.981706	-68.866194
1114.395798	-68.757627
1114.810198	-68.656034
1115.224906	-68.560332
1115.639923	-68.469053
1116.055249	-68.380716
1116.470884	-68.294177
1116.886829	-68.208807
1117.303084	-68.124418
1117.719650	-68.040994
1118.136526	-67.958393
1118.553713	-67.876201
1118.971212	-67.793789
1119.389022	-67.710528
1119.807145	-67.625976
1120.225580	-67.539927
1120.644328	-67.452273
1121.063389	-67.362773
1121.482763	-67.270865
1121.902452	-67.175647
1122.322454	-67.076068
1122.742771	-66.971254
1123.163404	-66.860834
1123.584351	-66.745097
1124.005614	-66.624910
1124.427193	-66.501433
1124.849089	-66.375751
1125.271301	-66.248589
1125.693830	-66.120207
1126.116677	-65.990506
1126.539842	-65.859288
1126.963324	-65.726572
1127.387126	-65.592827
1127.811246	-65.459014
1128.235685	-65.326394
1128.660444	-65.196172
1129.085522	-65.069137
1129.510922	-64.945476
1129.936641	-64.824858
1130.362682	-64.706715
1130.789044	-64.590566
1131.215728	-64.476224
1131.642734	-64.363829
1132.070063	-64.253747
1132.497714	-64.146450
1132.925689	-64.042405
1133.353987	-63.941950
1133.782610	-63.845153
1134.211556	-63.751628
1134.640827	-63.660446
1135.070424	-63.570225
1135.500345	-63.479481
1135.930593	-63.387133
1136.361166	-63.292939
1136.792067	-63.197578
1137.223294	-63.102258
1137.654848	-63.007995
1138.086730	-62.914927
1138.518940	-62.822075
1138.951479	-62.727711
1139.384346	-62.630169
1139.817543	-62.528630
1140.251069	-62.423430
1140.684925	-62.315701
1141.119111	-62.206563
1141.553628	-62.096349
1141.988475	-61.984338
1142.423655	-61.869167
1142.859166	-61.749703
1143.295009	-61.625860
1143.731185	-61.498863
1144.167694	-61.370785
1144.604536	-61.243634
1145.041711	-61.118535
1145.479221	-60.995421
1145.917065	-60.873373
1146.355245	-60.751309
1146.793759	-60.628609
1147.232609	-60.505311
1147.671795	-60.381870
1148.111317	-60.258740
1148.551177	-60.136138
1148.991373	-60.014194
1149.431907	-59.893331
1149.872779	-59.774551
1150.313989	-59.659258
1150.755538	-59.548636
1151.197426	-59.442875
1151.639653	-59.340759
1152.082220	-59.239973
1152.525128	-59.138085
1152.968376	-59.033766
1153.411966	-58.927557
1153.855897	-58.821711
1154.300169	-58.719081
1154.744784	-58.621621
1155.189742	-58.529271
1155.635042	-58.439847
1156.080687	-58.350026
1156.526674	-58.256926
1156.973007	-58.159431
1157.419683	-58.058517
1157.866705	-57.956438
1158.314072	-57.855289
1158.761786	-57.755841
1159.209845	-57.657267
1159.658251	-57.557824
1160.107004	-57.455979
1160.556104	-57.351207
1161.005553	-57.243990
1161.455349	-57.135127
1161.905494	-57.024937
1162.355989	-56.912980
1162.806832	-56.798484
1163.258026	-56.681133
1163.709570	-56.561568
1164.161464	-56.441191
1164.613710	-56.321347
1165.066307	-56.202450
1165.519256	-56.083701
1165.972558	-55.963616
1166.426212	-55.841072
1166.880219	-55.716156
1167.334580	-55.590259
1167.789295	-55.465337
1168.244364	-55.342846
1168.699788	-55.223029
1169.155567	-55.104960
1169.611702	-54.987277
1170.068193	-54.869097
1170.525041	-54.750549
1170.982245	-54.632651
1171.439807	-54.516674
1171.897726	-54.403446
1172.356004	-54.293013
1172.814640	-54.184770
1173.273635	-54.077921
1173.732989	-53.971957
1174.192703	-53.866891
1174.652778	-53.763167
1175.113213	-53.661332
1175.574009	-53.561696
1176.035167	-53.464146
1176.496687	-53.368219
1176.958569	-53.273364
1177.420814	-53.179230
1177.883422	-53.085807
1178.346394	-52.993356
1178.809730	-52.902152
1179.273430	-52.812229
1179.737496	-52.723295
1180.201927	-52.634854
1180.666723	-52.546474
1181.131886	-52.457990
1181.597416	-52.369528
1182.063312	-52.281335
1182.529576	-52.193542
1182.996209	-52.106005
1183.463209	-52.018328
1183.930579	-51.930042
1184.398317	-51.840834
1184.866426	-51.750667
1185.334904	-51.659717
1185.803754	-51.568175
1186.272974	-51.476042
1186.742566	-51.383059
1187.212529	-51.288805
1187.682865	-51.192916
1188.153574	-51.095253
1188.624656	-50.995922
1189.096112	-50.895126
1189.567942	-50.792971
1190.040147	-50.689349
1190.512726	-50.583975
1190.985681	-50.476540
1191.459012	-50.366875
1191.932720	-50.255016
1192.406804	-50.141144
1192.881265	-50.025433
1193.356104	-49.907930
1193.831322	-49.788528
1194.306918	-49.667057
1194.782893	-49.543420
1195.259248	-49.417676
1195.735982	-49.290022
1196.213097	-49.160675
1196.690593	-49.029768
1197.168471	-48.897318
1197.646730	-48.763293
1198.125371	-48.627725
1198.604395	-48.490776
1199.083803	-48.352718
1199.563594	-48.213835
1200.043769	-48.074331
1200.524329	-47.934308
1201.005273	-47.793824
1201.486604	-47.652996
1201.968320	-47.512051
1202.450422	-47.371299
1202.932912	-47.231041
1203.415789	-47.091483
1203.899054	-46.952723
1204.382707	-46.814812
1204.866748	-46.677845
1205.351179	-46.542000
1205.836000	-46.407505
1206.321211	-46.274556
1206.806812	-46.143249
1207.292805	-46.013578
1207.779189	-45.885495
1208.265965	-45.758986
1208.753134	-45.634105
1209.240696	-45.510938
1209.728651	-45.389528
1210.217000	-45.269825
1210.705744	-45.151695
1211.194883	-45.034982
1211.684417	-44.919575
1212.174347	-44.805425
1212.664673	-44.692507
1213.155396	-44.580751
1213.646516	-44.470017
1214.138034	-44.360117
1214.629951	-44.250883
1215.122266	-44.142210
1215.614980	-44.034055
1216.108095	-43.926388
1216.601609	-43.819134
1217.095524	-43.712170
1217.589841	-43.605367
1218.084559	-43.498654
1218.579679	-43.392039
1219.075202	-43.285589
1219.571128	-43.179364
1220.067458	-43.073384
1220.564191	-42.967641
1221.061330	-42.862150
1221.558874	-42.756995
1222.056823	-42.652324
1222.555178	-42.548294
1223.053940	-42.445013
1223.553109	-42.342532
1224.052686	-42.240873
1224.552671	-42.140087
1225.053065	-42.040271
1225.553867	-41.941540
1226.055079	-41.843964
1226.556702	-41.747539
1227.058735	-41.652202
1227.561179	-41.557883
1228.064035	-41.464538
1228.567303	-41.372142
1229.070983	-41.280648
1229.575077	-41.189944
1230.079585	-41.099857
1230.584506	-41.010193
1231.089842	-40.920787
1231.595594	-40.831517
1232.101761	-40.742275
1232.608345	-40.652931
1233.115345	-40.563319
1233.622762	-40.473259
1234.130597	-40.382592
1234.638851	-40.291206
1235.147523	-40.199026
1235.656615	-40.105990
1236.166126	-40.012032
1236.676058	-39.917096
1237.186411	-39.821154
1237.697185	-39.724224
1238.208381	-39.626369
1238.719999	-39.527678
1239.232040	-39.428257
1239.744505	-39.328212
1240.257394	-39.227659
1240.770708	-39.126723
1241.284446	-39.025540
1241.798610	-38.924259
1242.313201	-38.823034
1242.828218	-38.722015
1243.343662	-38.621340
1243.859534	-38.521124
1244.375834	-38.421473
1244.892563	-38.322491
1245.409721	-38.224277
1245.927309	-38.126914
1246.445327	-38.030436
1246.963777	-37.934834
1247.482657	-37.840063
1248.001970	-37.746066
1248.521716	-37.652789
1249.041894	-37.560156
1249.562506	-37.468047
1250.083553	-37.376295
1250.605034	-37.284708
1251.126950	-37.193106
1251.649302	-37.101329
1252.172091	-37.009223
1252.695316	-36.916613
1253.218979	-36.823307
1253.743079	-36.729134
1254.267619	-36.633985
1254.792597	-36.537812
1255.318015	-36.440605
1255.843874	-36.342358
1256.370173	-36.243075
1256.896913	-36.142807
1257.424095	-36.041673
1257.951720	-35.939850
1258.479787	-35.837525
1259.008298	-35.734866
1259.537254	-35.632036
1260.066654	-35.529223
1260.596499	-35.426649
1261.126790	-35.324539
1261.657527	-35.223080
1262.188711	-35.122404
1262.720342	-35.022615
1263.252422	-34.923815
1263.784950	-34.826106
1264.317928	-34.729553
1264.851355	-34.634159
1265.385232	-34.539874
1265.919560	-34.446629
1266.454340	-34.354353
1266.989572	-34.262965
1267.525256	-34.172341
1268.061394	-34.082308
1268.597985	-33.992673
1269.135031	-33.903253
1269.672531	-33.813880
1270.210487	-33.724382
1270.748899	-33.634566
1271.287768	-33.544238
1271.827094	-33.453233
1272.366877	-33.361430
1272.907119	-33.268745
1273.447820	-33.175106
1273.988981	-33.080460
1274.530601	-32.984789
1275.072683	-32.888132
1275.615226	-32.790578
1276.158230	-32.692245
1276.701697	-32.593266
1277.245627	-32.493806
1277.790021	-32.394071
1278.334879	-32.294304
1278.880202	-32.194759
1279.425991	-32.095678
1279.972245	-31.997293
1280.518966	-31.899827
1281.066155	-31.803495
1281.613811	-31.708481
1282.161936	-31.614917
1282.710529	-31.522884
1283.259593	-31.432425
1283.809126	-31.343545
1284.359131	-31.256206
1284.909607	-31.170306
1285.460555	-31.085686
1286.011976	-31.002147
1286.563870	-30.919462
1287.116237	-30.837375
1287.669080	-30.755601
1288.222397	-30.673832
1288.776191	-30.591764
1289.330460	-30.509116
1289.885207	-30.425634
1290.440431	-30.341095
1290.996133	-30.255308
1291.552314	-30.168132
1292.108975	-30.079497
1292.666115	-29.989396
1293.223737	-29.897879
1293.781839	-29.805039
1294.340424	-29.711026
1294.899491	-29.616041
1295.459041	-29.520328
1296.019075	-29.424153
1296.579593	-29.327791
1297.140597	-29.231520
1297.702086	-29.135625
1298.264061	-29.040380
1298.826524	-28.946033
1299.389474	-28.852790
1299.952912	-28.760815
1300.516839	-28.670231
1301.081255	-28.581119
1301.646162	-28.493504
1302.211559	-28.407356
1302.777448	-28.322597
1303.343829	-28.239109
1303.910702	-28.156741
1304.478069	-28.075303
1305.045930	-27.994569
1305.614285	-27.914293
1306.183136	-27.834218
1306.752483	-27.754085
1307.322326	-27.673636
1307.892666	-27.592616
1308.463504	-27.510787
1309.034841	-27.427937
1309.606677	-27.343884
1310.179012	-27.258484
1310.751849	-27.171628
1311.325186	-27.083257
1311.899025	-26.993365
1312.473366	-26.902002
1313.048211	-26.809267
1313.623559	-26.715308
1314.199412	-26.620320
1314.775770	-26.524544
1315.352634	-26.428258
1315.930004	-26.331771
1316.507881	-26.235410
1317.086266	-26.139516
1317.665159	-26.044428
1318.244562	-25.950474
1318.824474	-25.857952
1319.404897	-25.767123
1319.985831	-25.678197
1320.567276	-25.591329
1321.149234	-25.506605
1321.731706	-25.424041
1322.314691	-25.343577
1322.898190	-25.265075
1323.482205	-25.188325
1324.066736	-25.113048
1324.651783	-25.038905
1325.237347	-24.965505
1325.823430	-24.892428
1326.410031	-24.819235
1326.997151	-24.745490
1327.584791	-24.670778
1328.172952	-24.594723
1328.761634	-24.517006
1329.350839	-24.437383
1329.940566	-24.355693
1330.530817	-24.271864
1331.121592	-24.185922
1331.712891	-24.097989
1332.304716	-24.008276
1332.897068	-23.917073
1333.489946	-23.824735
1334.083352	-23.731666
1334.677287	-23.638300
1335.271750	-23.545082
1335.866744	-23.452448
1336.462268	-23.360812
1337.058323	-23.270550
1337.654910	-23.181988
1338.252029	-23.095391
1338.849682	-23.010963
1339.447869	-22.928834
1340.046591	-22.849065
1340.645848	-22.771644
1341.245641	-22.696488
1341.845972	-22.623449
1342.446840	-22.552318
1343.048246	-22.482834
1343.650191	-22.414688
1344.252677	-22.347540
1344.855702	-22.281027
1345.459269	-22.214771
1346.063379	-22.148394
1346.668030	-22.081526
1347.273226	-22.013813
1347.878965	-21.944925
1348.485250	-21.874565
1349.092080	-21.802478
1349.699456	-21.728459
1350.307380	-21.652362
1350.915851	-21.574102
1351.524871	-21.493663
1352.134441	-21.411097
1352.744560	-21.326518
1353.355231	-21.240105
1353.966453	-21.152095
1354.578227	-21.062786
1355.190555	-20.972523
1355.803436	-20.881698
1356.416872	-20.790733
1357.030863	-20.700070
1357.645411	-20.610155
1358.260515	-20.521422
1358.876177	-20.434279
1359.492397	-20.349095
1360.109176	-20.266191
1360.726516	-20.185828
1361.344416	-20.108199
1361.962877	-20.033421
1362.581901	-19.961525
1363.201487	-19.892453
1363.821637	-19.826049
1364.442352	-19.762066
1365.063632	-19.700173
1365.685478	-19.639960
1366.307891	-19.580960
1366.930871	-19.522656
1367.554420	-19.464497
1368.178538	-19.405908
1368.803226	-19.346308
1369.428485	-19.285128
1370.054315	-19.221833
1370.680717	-19.155948
1371.307693	-19.087086
1371.935242	-19.014960
1372.563366	-18.939399
1373.192065	-18.860349
1373.821341	-18.777873
1374.451193	-18.692154
1375.081623	-18.603488
1375.712632	-18.512280
1376.344221	-18.419033
1376.976389	-18.324331
1377.609139	-18.228809
1378.242470	-18.133132
1378.876384	-18.037963
1379.510881	-17.943944
1380.145963	-17.851680
1380.781629	-17.761723
1381.417881	-17.674563
1382.054720	-17.590617
1382.692147	-17.510217
1383.330161	-17.433599
1383.968765	-17.360898
1384.607959	-17.292145
1385.247743	-17.227266
1385.888119	-17.166081
1386.529087	-17.108312
1387.170648	-17.053584
1387.812804	-17.001437
1388.455554	-16.951340
1389.098899	-16.902709
1389.742842	-16.854930
1390.387381	-16.807374
1391.032519	-16.759417
1391.678256	-16.710451
1392.324592	-16.659892
1392.971529	-16.607198
1393.619068	-16.551880
1394.267208	-16.493534
1394.915952	-16.431863
1395.565300	-16.366693
1396.215253	-16.297984
