# 2022-03-21_21.20.51
# shape = sech2
# FWHM_ps = 0.1
# carrier_nm = 1542
# frep_MHz = 12126
# pow_mW = 8000
# GDD = 0.0
# propa_len = 0.098
# untap_len = 0.01
# taper_len = 0.038
# waist_len = 0.02
# uptap_len = 0.02
# untap_scale = 1.0
# waist_scale = 0.24210526315789477
# workingDir = NL_20110305_12 (Spirou)
# axis = slow
# window_ps = 10.0
# steps = 200
# points = 21700
# 
# wavelength [nm]	 power spectral density [dB]
600.043425	-80.966557
600.163550	-80.954848
600.283723	-80.895711
600.403943	-80.785820
600.524212	-80.629624
600.644529	-80.434454
600.764895	-80.211920
600.885308	-79.973318
601.005770	-79.731842
601.126280	-79.500945
601.246839	-79.285454
601.367446	-79.087851
601.488101	-78.906931
601.608804	-78.736031
601.729557	-78.571119
601.850357	-78.406434
601.971206	-78.233010
602.092104	-78.048209
602.213050	-77.850661
602.334045	-77.636319
602.455089	-77.408567
602.576181	-77.172136
602.697322	-76.933068
602.818511	-76.701257
602.939749	-76.484043
603.061036	-76.286363
603.182372	-76.113161
603.303757	-75.965059
603.425191	-75.837085
603.546673	-75.727005
603.668204	-75.628543
603.789785	-75.532893
603.911414	-75.431398
604.033092	-75.320811
604.154820	-75.198369
604.276596	-75.061973
604.398422	-74.915188
604.520297	-74.764996
604.642220	-74.616573
604.764193	-74.476727
604.886216	-74.351403
605.008287	-74.243717
605.130408	-74.157072
605.252578	-74.090160
605.374798	-74.040676
605.497066	-74.005355
605.619385	-73.977323
605.741752	-73.950947
605.864169	-73.921226
605.986636	-73.881643
606.109152	-73.829327
606.231718	-73.763218
606.354333	-73.686681
606.476998	-73.604682
606.599712	-73.521484
606.722476	-73.444770
606.845290	-73.381803
606.968154	-73.335789
607.091067	-73.307629
607.214030	-73.298927
607.337043	-73.309267
607.460106	-73.337326
607.583219	-73.379443
607.706381	-73.426859
607.829594	-73.474600
607.952856	-73.518507
608.076169	-73.553828
608.199531	-73.580321
608.322944	-73.595430
608.446407	-73.600028
608.569920	-73.600195
608.693483	-73.600211
608.817096	-73.608171
608.940759	-73.630533
609.064473	-73.668753
609.188237	-73.724158
609.312051	-73.798037
609.435916	-73.890889
609.559831	-74.001478
609.683796	-74.122431
609.807812	-74.248704
609.931878	-74.375677
610.055995	-74.497025
610.180162	-74.610464
610.304380	-74.712280
610.428648	-74.801814
610.552967	-74.883178
610.677337	-74.960160
610.801757	-75.037982
610.926228	-75.125160
611.050750	-75.225020
611.175323	-75.341580
611.299946	-75.480600
611.424620	-75.641818
611.549345	-75.823302
611.674121	-76.021590
611.798948	-76.229700
611.923826	-76.444667
612.048755	-76.657493
612.173734	-76.857980
612.298765	-77.041328
612.423847	-77.201751
612.548980	-77.334037
612.674165	-77.441117
612.799400	-77.529584
612.924687	-77.605361
613.050025	-77.674466
613.175414	-77.743894
613.300854	-77.823491
613.426346	-77.920179
613.551889	-78.034520
613.677484	-78.167381
613.803130	-78.316662
613.928827	-78.472692
614.054576	-78.628801
614.180377	-78.773705
614.306229	-78.895743
614.432132	-78.985443
614.558087	-79.034462
614.684094	-79.032392
614.810153	-78.976230
614.936263	-78.869780
615.062425	-78.724532
615.188639	-78.553145
615.314904	-78.370679
615.441222	-78.192124
615.567591	-78.030505
615.694012	-77.889514
615.820486	-77.772288
615.947011	-77.685811
616.073588	-77.629073
616.200217	-77.594418
616.326898	-77.568960
616.453632	-77.539151
616.580417	-77.497535
616.707255	-77.431396
616.834144	-77.328316
616.961086	-77.183312
617.088081	-77.001800
617.215127	-76.795141
617.342226	-76.575028
617.469378	-76.354178
617.596581	-76.146854
617.723837	-75.967733
617.851146	-75.826996
617.978507	-75.726429
618.105920	-75.667801
618.233386	-75.649186
618.360905	-75.661713
618.488476	-75.693094
618.616100	-75.730188
618.743777	-75.757461
618.871506	-75.759737
618.999288	-75.729670
619.127123	-75.665318
619.255011	-75.570662
619.382951	-75.455531
619.510945	-75.332701
619.638991	-75.217867
619.767090	-75.128423
619.895243	-75.075087
620.023448	-75.065480
620.151706	-75.102386
620.280017	-75.184763
620.408382	-75.307811
620.536799	-75.458178
620.665270	-75.622553
620.793794	-75.785763
620.922371	-75.928424
621.051002	-76.039908
621.179686	-76.114494
621.308423	-76.153741
621.437213	-76.170098
621.566057	-76.180072
621.694954	-76.199497
621.823905	-76.244904
621.952909	-76.328518
622.081967	-76.461472
622.211079	-76.652787
622.340244	-76.901276
622.469462	-77.200606
622.598735	-77.543256
622.728061	-77.909924
622.857441	-78.284831
622.986874	-78.650312
623.116361	-78.989877
623.245903	-79.298469
623.375498	-79.572190
623.505147	-79.820471
623.634850	-80.059048
623.764606	-80.309876
623.894417	-80.598375
624.024282	-80.939508
624.154201	-81.345346
624.284174	-81.823330
624.414202	-82.366052
624.544283	-82.967125
624.674419	-83.611310
624.804609	-84.274919
624.934853	-84.936025
625.065151	-85.545448
625.195504	-86.048146
625.325911	-86.408188
625.456373	-86.594252
625.586889	-86.589087
625.717460	-86.391793
625.848085	-86.026050
625.978764	-85.537588
626.109498	-84.971707
626.240287	-84.372406
626.371131	-83.774081
626.502029	-83.195582
626.632982	-82.656442
626.763989	-82.161502
626.895052	-81.701526
627.026169	-81.264174
627.157341	-80.839287
627.288568	-80.412299
627.419850	-79.975501
627.551187	-79.523248
627.682579	-79.057005
627.814026	-78.588975
627.945528	-78.127031
628.077085	-77.683922
628.208697	-77.275905
628.340364	-76.910158
628.472087	-76.591377
628.603865	-76.322099
628.735698	-76.098075
628.867586	-75.909872
628.999530	-75.748593
629.131529	-75.603429
629.263584	-75.462863
629.395694	-75.312293
629.527859	-75.145398
629.660080	-74.963495
629.792357	-74.769704
629.924689	-74.571047
630.057077	-74.380716
630.189520	-74.207361
630.322019	-74.055209
630.454574	-73.930528
630.587184	-73.839053
630.719851	-73.778240
630.852573	-73.744181
630.985351	-73.732838
631.118185	-73.736234
631.251075	-73.747121
631.384021	-73.760795
631.517023	-73.774035
631.650081	-73.784991
631.783195	-73.794933
631.916365	-73.807516
632.049592	-73.823540
632.182874	-73.846137
632.316213	-73.880784
632.449608	-73.930320
632.583059	-73.991428
632.716567	-74.062928
632.850131	-74.146364
632.983751	-74.241525
633.117428	-74.349248
633.251161	-74.469028
633.384951	-74.600495
633.518797	-74.750025
633.652700	-74.921094
633.786660	-75.109691
633.920676	-75.311567
634.054749	-75.522365
634.188879	-75.737317
634.323065	-75.949943
634.457308	-76.151555
634.591608	-76.343217
634.725965	-76.523311
634.860379	-76.687064
634.994850	-76.842258
635.129377	-76.994018
635.263962	-77.146183
635.398604	-77.297537
635.533303	-77.437794
635.668058	-77.562372
635.802872	-77.660519
635.937742	-77.713845
636.072669	-77.713779
636.207654	-77.661747
636.342696	-77.566171
636.477796	-77.431650
636.612953	-77.265059
636.748167	-77.078257
636.883439	-76.878169
637.018768	-76.657636
637.154155	-76.408708
637.289599	-76.127848
637.425101	-75.813567
637.560660	-75.466621
637.696277	-75.093956
637.831952	-74.712218
637.967685	-74.338723
638.103475	-73.983985
638.239324	-73.659631
638.375230	-73.372035
638.511194	-73.117557
638.647215	-72.888456
638.783295	-72.673273
638.919433	-72.459897
639.055629	-72.239304
639.191883	-72.003444
639.328195	-71.752866
639.464565	-71.488379
639.600994	-71.218967
639.737481	-70.960519
639.874025	-70.719321
640.010629	-70.503602
640.147290	-70.320858
640.284010	-70.168938
640.420789	-70.045031
640.557625	-69.940178
640.694521	-69.843405
640.831474	-69.748201
640.968487	-69.647816
641.105558	-69.541735
641.242687	-69.433380
641.379876	-69.328049
641.517123	-69.234741
641.654429	-69.161528
641.791793	-69.112506
641.929216	-69.090679
642.066699	-69.093183
642.204240	-69.114346
642.341840	-69.145639
642.479499	-69.176088
642.617217	-69.199901
642.754994	-69.214920
642.892830	-69.218893
643.030726	-69.218332
643.168680	-69.227305
643.306694	-69.256403
643.444767	-69.314021
643.582899	-69.406681
643.721091	-69.536918
643.859342	-69.699716
643.997652	-69.885186
644.136022	-70.082707
644.274451	-70.274183
644.412940	-70.446436
644.551488	-70.594750
644.690096	-70.719637
644.828763	-70.831060
644.967490	-70.942240
645.106277	-71.064607
645.245124	-71.207998
645.384030	-71.373467
645.522997	-71.550828
645.662023	-71.719383
645.801109	-71.856948
645.940255	-71.945168
646.079460	-71.968477
646.218726	-71.921871
646.358052	-71.820952
646.497438	-71.686559
646.636884	-71.535487
646.776391	-71.381769
646.915957	-71.228880
647.055584	-71.069977
647.195271	-70.888777
647.335019	-70.671495
647.474826	-70.406470
647.614695	-70.089848
647.754623	-69.732656
647.894612	-69.351330
648.034662	-68.963542
648.174772	-68.585982
648.314943	-68.230367
648.455174	-67.903313
648.595466	-67.602414
648.735819	-67.320545
648.876233	-67.051598
649.016707	-66.786289
649.157242	-66.518542
649.297838	-66.248060
649.438495	-65.976639
649.579213	-65.710094
649.719992	-65.456760
649.860832	-65.221561
650.001733	-65.006996
650.142695	-64.814457
650.283718	-64.642860
650.424803	-64.487255
650.565949	-64.340824
650.707156	-64.199106
650.848424	-64.058762
650.989754	-63.918675
651.131145	-63.781935
651.272597	-63.651567
651.414111	-63.531945
651.555687	-63.430149
651.697324	-63.348326
651.839022	-63.287361
651.980782	-63.247811
652.122604	-63.225717
652.264488	-63.218071
652.406433	-63.220916
652.548441	-63.230189
652.690510	-63.246057
652.832640	-63.267901
652.974833	-63.298240
653.117088	-63.340900
653.259405	-63.397744
653.401784	-63.473492
653.544224	-63.568604
653.686727	-63.680442
653.829293	-63.809831
653.971920	-63.951830
654.114609	-64.102388
654.257361	-64.261952
654.400175	-64.425754
654.543052	-64.595516
654.685991	-64.775629
654.828992	-64.966432
654.972056	-65.172543
655.115183	-65.395895
655.258372	-65.636472
655.401623	-65.895162
655.544937	-66.165328
655.688314	-66.441922
655.831754	-66.720265
655.975256	-66.989537
656.118822	-67.241939
656.262450	-67.470087
656.406141	-67.666967
656.549894	-67.827541
656.693711	-67.944529
656.837591	-68.011023
656.981534	-68.020094
657.125540	-67.967591
657.269610	-67.850396
657.413742	-67.670527
657.557938	-67.433979
657.702196	-67.146749
657.846519	-66.822469
657.990904	-66.474249
658.135353	-66.108784
658.279866	-65.736654
658.424441	-65.364776
658.569081	-64.995391
658.713784	-64.632084
658.858550	-64.275900
659.003381	-63.926598
659.148274	-63.583836
659.293232	-63.249058
659.438253	-62.922501
659.583339	-62.604929
659.728488	-62.299649
659.873701	-62.008314
660.018978	-61.732153
660.164318	-61.473266
660.309723	-61.231066
660.455192	-61.006731
660.600725	-60.798920
660.746323	-60.605652
660.891984	-60.426888
661.037710	-60.260289
661.183500	-60.105976
661.329354	-59.965410
661.475272	-59.838956
661.621255	-59.729051
661.767303	-59.636267
661.913415	-59.561408
662.059591	-59.506743
662.205833	-59.468570
662.352138	-59.444244
662.498509	-59.434709
662.644944	-59.436108
662.791443	-59.446544
662.938008	-59.467578
663.084638	-59.499665
663.231332	-59.544409
663.378091	-59.605295
663.524915	-59.683777
663.671804	-59.779706
663.818759	-59.893496
663.965778	-60.023599
664.112863	-60.167523
664.260012	-60.322143
664.407227	-60.486198
664.554507	-60.660237
664.701853	-60.844222
664.849264	-61.040371
664.996740	-61.251959
665.144282	-61.479047
665.291889	-61.722398
665.439561	-61.977887
665.587300	-62.237521
665.735103	-62.494772
665.882973	-62.739089
666.030908	-62.962152
666.178909	-63.158340
666.326976	-63.323043
666.475109	-63.456966
666.623307	-63.557873
666.771571	-63.620994
666.919902	-63.641527
667.068298	-63.610531
667.216761	-63.522422
667.365289	-63.375628
667.513884	-63.173681
667.662545	-62.928114
667.811272	-62.651443
667.960065	-62.355664
668.108925	-62.051812
668.257851	-61.745055
668.406843	-61.438279
668.555902	-61.131064
668.705027	-60.823109
668.854219	-60.515677
669.003478	-60.210887
669.152803	-59.914236
669.302195	-59.629825
669.451653	-59.361280
669.601179	-59.112053
669.750771	-58.882101
669.900430	-58.670365
670.050156	-58.474562
670.199949	-58.291814
670.349808	-58.120072
670.499735	-57.958781
670.649729	-57.809327
670.799790	-57.673781
670.949918	-57.554629
671.100114	-57.454293
671.250377	-57.372879
671.400707	-57.309897
671.551104	-57.263874
671.701569	-57.233027
671.852101	-57.214640
672.002700	-57.207510
672.153368	-57.212118
672.304102	-57.229737
672.454905	-57.262444
672.605775	-57.312698
672.756713	-57.381498
672.907718	-57.468383
673.058791	-57.571929
673.209933	-57.689400
673.361142	-57.817304
673.512419	-57.952375
673.663764	-58.093214
673.815177	-58.239500
673.966658	-58.391722
674.118207	-58.551238
674.269825	-58.717764
674.421510	-58.888821
674.573264	-59.060628
674.725086	-59.227946
674.876977	-59.385393
675.028936	-59.527617
675.180963	-59.650422
675.333059	-59.751877
675.485224	-59.830638
675.637457	-59.887315
675.789758	-59.919542
675.942129	-59.924354
676.094568	-59.900642
676.247075	-59.844714
676.399652	-59.755365
676.552298	-59.635120
676.705012	-59.487584
676.857795	-59.318294
677.010648	-59.132816
677.163569	-58.936274
677.316560	-58.732340
677.469619	-58.522611
677.622748	-58.309237
677.775946	-58.093392
677.929214	-57.877007
678.082551	-57.663385
678.235957	-57.455137
678.389432	-57.255612
678.542977	-57.067557
678.696592	-56.891828
678.850276	-56.730487
679.004030	-56.583313
679.157853	-56.449201
679.311746	-56.328755
679.465709	-56.221605
679.619742	-56.127401
679.773844	-56.047031
679.928017	-55.980566
680.082259	-55.928305
680.236571	-55.891154
680.390954	-55.868570
680.545406	-55.859366
680.699929	-55.863665
680.854522	-55.880665
681.009185	-55.908956
681.163918	-55.948802
681.318722	-55.999847
681.473596	-56.060553
681.628540	-56.130754
681.783555	-56.209393
681.938641	-56.295185
682.093797	-56.386912
682.249023	-56.482206
682.404321	-56.579903
682.559689	-56.678023
682.715128	-56.773304
682.870637	-56.864453
683.026218	-56.949202
683.181869	-57.024607
683.337591	-57.089791
683.493385	-57.143270
683.649249	-57.183463
683.805185	-57.209414
683.961191	-57.219382
684.117269	-57.212327
684.273418	-57.186195
684.429639	-57.139921
684.585930	-57.074190
684.742294	-56.990451
684.898728	-56.891671
685.055234	-56.781039
685.211812	-56.661505
685.368461	-56.536044
685.525182	-56.406061
685.681975	-56.272562
685.838839	-56.136945
685.995775	-56.000926
686.152783	-55.866170
686.309863	-55.734752
686.467014	-55.610475
686.624238	-55.495496
686.781534	-55.390716
686.938902	-55.297063
687.096342	-55.213751
687.253854	-55.139605
687.411438	-55.074850
687.569095	-55.019362
687.726824	-54.973574
687.884626	-54.939921
688.042499	-54.919565
688.200446	-54.912375
688.358465	-54.918081
688.516556	-54.934241
688.674720	-54.958372
688.832957	-54.988881
688.991266	-55.023215
689.149649	-55.061035
689.308104	-55.102934
689.466632	-55.148370
689.625233	-55.197278
689.783906	-55.247876
689.942653	-55.297131
690.101473	-55.341412
690.260367	-55.377114
690.419333	-55.402441
690.578372	-55.417526
690.737485	-55.423094
690.896672	-55.420629
691.055931	-55.411223
691.215264	-55.394201
691.374671	-55.367954
691.534151	-55.329995
691.693704	-55.279659
691.853332	-55.217293
692.013033	-55.145657
692.172807	-55.068489
692.332656	-54.989440
692.492578	-54.911415
692.652575	-54.836296
692.812645	-54.763485
692.972789	-54.692340
693.133007	-54.622288
693.293300	-54.554213
693.453666	-54.490251
693.614107	-54.433098
693.774622	-54.385803
693.935211	-54.350316
694.095875	-54.326515
694.256613	-54.312729
694.417426	-54.306757
694.578313	-54.306047
694.739274	-54.310089
694.900311	-54.319955
695.061421	-54.336163
695.222607	-54.360655
695.383868	-54.394585
695.545203	-54.435835
695.706613	-54.481383
695.868098	-54.527944
696.029658	-54.570630
696.191293	-54.607306
696.353003	-54.636896
696.514789	-54.659735
696.676649	-54.676432
696.838585	-54.686303
697.000596	-54.687976
697.162682	-54.678407
697.324844	-54.654598
697.487081	-54.615265
697.649394	-54.559991
697.811782	-54.490806
697.974246	-54.410795
698.136786	-54.322715
698.299401	-54.229044
698.462092	-54.130230
698.624859	-54.027323
698.787702	-53.920462
698.950621	-53.810065
699.113616	-53.699034
699.276686	-53.590585
699.439833	-53.487971
699.603056	-53.395218
699.766355	-53.313843
699.929731	-53.244720
700.093183	-53.188244
700.256711	-53.144339
700.420315	-53.113514
700.583996	-53.096399
700.747754	-53.093762
700.911588	-53.107197
701.075499	-53.137008
701.239486	-53.183099
701.403550	-53.244455
701.567691	-53.319219
701.731909	-53.405306
701.896203	-53.500772
702.060575	-53.604068
702.225024	-53.714536
702.389549	-53.829961
702.554152	-53.948351
702.718832	-54.066757
702.883589	-54.179357
703.048424	-54.280394
703.213335	-54.364338
703.378324	-54.425994
703.543391	-54.462529
703.708535	-54.473000
703.873757	-54.457407
704.039056	-54.416590
704.204433	-54.351188
704.369887	-54.261918
704.535420	-54.150212
704.701030	-54.018049
704.866718	-53.869206
705.032484	-53.709271
705.198328	-53.543453
705.364250	-53.376808
705.530250	-53.214487
705.696328	-53.058778
705.862485	-52.911985
706.028720	-52.776121
706.195033	-52.652641
706.361424	-52.544466
706.527894	-52.454955
706.694442	-52.386402
706.861069	-52.340702
707.027775	-52.317557
707.194559	-52.315974
707.361422	-52.334630
707.528363	-52.371921
707.695384	-52.428641
707.862483	-52.505298
708.029661	-52.603321
708.196918	-52.723403
708.364254	-52.863567
708.531670	-53.020342
708.699164	-53.187847
708.866738	-53.359151
709.034391	-53.528926
709.202123	-53.692453
709.369935	-53.846563
709.537826	-53.988105
709.705796	-54.111396
709.873847	-54.209050
710.041976	-54.272599
710.210186	-54.293354
710.378475	-54.267743
710.546844	-54.197679
710.715292	-54.088758
710.883821	-53.948941
711.052429	-53.785292
711.221118	-53.602206
711.389887	-53.403981
711.558735	-53.194887
711.727664	-52.981119
711.896673	-52.770783
712.065763	-52.571363
712.234932	-52.389035
712.404183	-52.227652
712.573513	-52.087759
712.742924	-51.969262
712.912416	-51.872486
713.081988	-51.797942
713.251641	-51.749096
713.421375	-51.728777
713.591190	-51.739494
713.761085	-51.781485
713.931061	-51.853172
714.101119	-51.951123
714.271257	-52.072657
714.441476	-52.215749
714.611777	-52.380377
714.782159	-52.566881
714.952622	-52.774273
715.123166	-52.998405
715.293792	-53.231759
715.464499	-53.463604
715.635288	-53.682745
715.806158	-53.879738
715.977110	-54.047867
716.148143	-54.182481
716.319259	-54.278191
716.490456	-54.327722
716.661735	-54.323444
716.833096	-54.260375
717.004538	-54.140756
717.176063	-53.974571
717.347670	-53.774745
717.519359	-53.555635
717.691130	-53.327408
717.862984	-53.096583
718.034920	-52.867729
718.206938	-52.645893
718.379039	-52.436105
718.551222	-52.245060
718.723488	-52.078777
718.895836	-51.940792
719.068267	-51.832508
719.240781	-51.753716
719.413377	-51.703240
719.586057	-51.680565
719.758819	-51.686520
719.931664	-51.722943
720.104593	-51.790758
720.277604	-51.889553
720.450699	-52.016673
720.623876	-52.167551
720.797137	-52.336740
720.970482	-52.520000
721.143910	-52.712958
721.317421	-52.913225
721.491016	-53.116108
721.664694	-53.314931
721.838456	-53.500028
722.012302	-53.658711
722.186231	-53.780548
722.360244	-53.858882
722.534342	-53.890521
722.708523	-53.877970
722.882788	-53.825292
723.057137	-53.736284
723.231570	-53.616463
723.406088	-53.470659
723.580689	-53.305610
723.755375	-53.129475
723.930146	-52.951671
724.105000	-52.781076
724.279940	-52.624824
724.454963	-52.487737
724.630072	-52.372469
724.805265	-52.279791
724.980543	-52.210545
725.155905	-52.165459
725.331353	-52.146790
725.506885	-52.156127
725.682503	-52.194111
725.858205	-52.259019
726.033993	-52.347984
726.209865	-52.456803
726.385823	-52.581826
726.561866	-52.720130
726.737995	-52.869257
726.914209	-53.025020
727.090508	-53.181245
727.266893	-53.328866
727.443364	-53.458068
727.619920	-53.560981
727.796562	-53.632703
727.973290	-53.672644
728.150103	-53.680680
728.327003	-53.657468
728.503988	-53.603213
728.681060	-53.518534
728.858218	-53.406576
729.035461	-53.274664
729.212791	-53.132103
729.390208	-52.989656
729.567710	-52.855133
729.745299	-52.732657
