# 2022-03-22_12.56.08
# shape = sech2
# FWHM_ps = 0.11
# carrier_nm = 1542
# frep_MHz = 12126
# pow_mW = 8000
# GDD = 0.0
# propa_len = 0.15311111111111111
# untap_len = 0.01
# taper_len = 0.09311111111111112
# waist_len = 0.02
# uptap_len = 0.02
# untap_scale = 1.0
# waist_scale = 0.3210526315789474
# workingDir = NL_20110305_12 (Spirou)
# axis = slow
# window_ps = 10.0
# steps = 200
# points = 21700
# 
# wavelength [nm]	 power spectral density [dB]
600.043425	-120.327003
600.163550	-118.444953
600.283723	-116.776156
600.403943	-115.404204
600.524212	-114.320880
600.644529	-113.499505
600.764895	-112.915095
600.885308	-112.548584
601.005770	-112.386888
601.126280	-112.422045
601.246839	-112.650185
601.367446	-113.070334
601.488101	-113.682965
601.608804	-114.487579
601.729557	-115.478245
601.850357	-116.635425
601.971206	-117.912107
602.092104	-119.216103
602.213050	-120.405472
602.334045	-121.334724
602.455089	-121.956314
602.576181	-122.375564
602.697322	-122.782675
602.818511	-123.350187
602.939749	-124.170288
603.061036	-125.169557
603.182372	-125.889083
603.303757	-125.452570
603.425191	-123.661938
603.546673	-121.343938
603.668204	-119.122971
603.789785	-117.187741
603.911414	-115.553318
604.033092	-114.192426
604.154820	-113.074202
604.276596	-112.173217
604.398422	-111.470562
604.520297	-110.953051
604.642220	-110.612151
604.764193	-110.443103
604.886216	-110.444255
605.008287	-110.616612
605.130408	-110.963357
605.252578	-111.489116
605.374798	-112.198431
605.497066	-113.092196
605.619385	-114.159083
605.741752	-115.356387
605.864169	-116.573278
605.986636	-117.588461
606.109152	-118.107239
606.231718	-117.975892
606.354333	-117.347041
606.476998	-116.514784
606.599712	-115.700925
606.722476	-115.018476
606.845290	-114.514484
606.968154	-114.207390
607.091067	-114.107019
607.214030	-114.224301
607.337043	-114.576809
607.460106	-115.193521
607.583219	-116.121106
607.706381	-117.433620
607.829594	-119.245464
607.952856	-121.700620
608.076169	-124.676095
608.199531	-126.079474
608.322944	-123.616986
608.446407	-120.369132
608.569920	-117.747386
608.693483	-115.735658
608.817096	-114.189835
608.940759	-113.004949
609.064473	-112.113196
609.188237	-111.471310
609.312051	-111.052032
609.435916	-110.839358
609.559831	-110.825917
609.683796	-111.011935
609.807812	-111.405502
609.931878	-112.024268
610.055995	-112.898938
610.180162	-114.080039
610.304380	-115.650179
610.428648	-117.744649
610.552967	-120.563899
610.677337	-124.103066
610.801757	-125.849507
610.926228	-122.927987
611.050750	-119.494353
611.175323	-116.866490
611.299946	-114.893616
611.424620	-113.390460
611.549345	-112.237777
611.674121	-111.360971
611.798948	-110.711968
611.923826	-110.258769
612.048755	-109.979542
612.173734	-109.859100
612.298765	-109.886599
612.423847	-110.053869
612.548980	-110.353860
612.674165	-110.778721
612.799400	-111.317158
612.924687	-111.950424
613.050025	-112.646643
613.175414	-113.354173
613.300854	-113.997848
613.426346	-114.487016
613.551889	-114.743540
613.677484	-114.739521
613.803130	-114.512502
613.928827	-114.141989
614.054576	-113.711860
614.180377	-113.287603
614.306229	-112.912429
614.432132	-112.612682
614.558087	-112.404792
614.684094	-112.300945
614.810153	-112.313138
614.936263	-112.456252
615.062425	-112.750717
615.188639	-113.225709
615.314904	-113.924033
615.441222	-114.910794
615.567591	-116.290392
615.694012	-118.241481
615.820486	-121.081037
615.947011	-125.128049
616.073588	-126.918982
616.200217	-122.321794
616.326898	-118.077931
616.453632	-114.961573
616.580417	-112.577641
616.707255	-110.681911
616.834144	-109.137635
616.961086	-107.863881
617.088081	-106.810013
617.215127	-105.942983
617.342226	-105.240643
617.469378	-104.688059
617.596581	-104.275318
617.723837	-103.996303
617.851146	-103.848044
617.978507	-103.830440
618.105920	-103.946310
618.233386	-104.201744
618.360905	-104.606723
618.488476	-105.176201
618.616100	-105.931832
618.743777	-106.904734
618.871506	-108.140201
618.999288	-109.705370
619.127123	-111.700131
619.255011	-114.257832
619.382951	-117.402623
619.510945	-119.962426
619.638991	-118.949658
619.767090	-116.052277
619.895243	-113.527832
620.023448	-111.606683
620.151706	-110.160537
620.280017	-109.074269
620.408382	-108.270614
620.536799	-107.699685
620.665270	-107.329538
620.793794	-107.139978
620.922371	-107.118670
621.051002	-107.258587
621.179686	-107.556331
621.308423	-108.011013
621.437213	-108.623483
621.566057	-109.395391
621.694954	-110.327186
621.823905	-111.412831
621.952909	-112.627047
622.081967	-113.897001
622.211079	-115.055484
622.340244	-115.820408
622.469462	-115.930025
622.598735	-115.397432
622.728061	-114.496836
622.857441	-113.505146
622.986874	-112.579844
623.116361	-111.784668
623.245903	-111.136092
623.375498	-110.631166
623.505147	-110.260937
623.634850	-110.016281
623.764606	-109.890279
623.894417	-109.879017
624.024282	-109.981521
624.154201	-110.199377
624.284174	-110.536609
624.414202	-110.999944
624.544283	-111.599773
624.674419	-112.352218
624.804609	-113.282648
624.934853	-114.431200
625.065151	-115.861900
625.195504	-117.679307
625.325911	-120.059835
625.456373	-123.287960
625.586889	-127.393644
625.717460	-128.466182
625.848085	-124.523338
625.978764	-120.941969
626.109498	-118.297948
626.240287	-116.287028
626.371131	-114.700653
626.502029	-113.416845
626.632982	-112.363119
626.763989	-111.495384
626.895052	-110.786029
627.026169	-110.216693
627.157341	-109.773627
627.288568	-109.444778
627.419850	-109.218256
627.551187	-109.081889
627.682579	-109.023560
627.814026	-109.032334
627.945528	-109.099833
628.077085	-109.221300
628.208697	-109.395931
628.340364	-109.626315
628.472087	-109.916992
628.603865	-110.272692
628.735698	-110.696800
628.867586	-111.190365
628.999530	-111.752296
629.131529	-112.380332
629.263584	-113.072494
629.395694	-113.828277
629.527859	-114.648460
629.660080	-115.532224
629.792357	-116.470949
629.924689	-117.439264
630.057077	-118.386870
630.189520	-119.240826
630.322019	-119.930594
630.454574	-120.432502
630.587184	-120.797287
630.719851	-121.132777
630.852573	-121.563280
630.985351	-122.206944
631.118185	-123.183577
631.251075	-124.652940
631.384021	-126.910825
631.517023	-130.709689
631.650081	-139.424500
631.783195	-139.444450
631.916365	-129.418909
632.049592	-124.590224
632.182874	-121.363530
632.316213	-118.961802
632.449608	-117.083403
632.583059	-115.574304
632.716567	-114.338939
632.850131	-113.308038
632.983751	-112.426596
633.117428	-111.650452
633.251161	-110.946238
633.384951	-110.292600
633.518797	-109.679858
633.652700	-109.107461
633.786660	-108.580097
633.920676	-108.103823
634.054749	-107.683589
634.188879	-107.322429
634.323065	-107.021990
634.457308	-106.783612
634.591608	-106.609246
634.725965	-106.501781
634.860379	-106.464742
634.994850	-106.501448
635.129377	-106.613856
635.263962	-106.801720
635.398604	-107.062243
635.533303	-107.390356
635.668058	-107.779472
635.802872	-108.222844
635.937742	-108.714830
636.072669	-109.251457
636.207654	-109.830095
636.342696	-110.448212
636.477796	-111.101380
636.612953	-111.781258
636.748167	-112.474272
636.883439	-113.161768
637.018768	-113.822266
637.154155	-114.435562
637.289599	-114.987110
637.425101	-115.471112
637.560660	-115.890641
637.696277	-116.254422
637.831952	-116.571387
637.967685	-116.845708
638.103475	-117.074187
638.239324	-117.246947
638.375230	-117.351975
638.511194	-117.382275
638.647215	-117.340820
638.783295	-117.240584
638.919433	-117.099156
639.055629	-116.931487
639.191883	-116.745458
639.328195	-116.542358
639.464565	-116.321909
639.600994	-116.087091
639.737481	-115.846234
639.874025	-115.610121
640.010629	-115.386773
640.147290	-115.178092
640.284010	-114.979304
640.420789	-114.782044
640.557625	-114.579874
640.694521	-114.371990
640.831474	-114.161883
640.968487	-113.951251
641.105558	-113.733871
641.242687	-113.493042
641.379876	-113.206915
641.517123	-112.861211
641.654429	-112.461377
641.791793	-112.034611
641.929216	-111.620157
642.066699	-111.255294
642.204240	-110.964799
642.341840	-110.757242
642.479499	-110.627401
642.617217	-110.562884
642.754994	-110.553207
642.892830	-110.598140
643.030726	-110.711394
643.168680	-110.917884
643.306694	-111.246450
643.444767	-111.720853
643.582899	-112.350731
643.721091	-113.123111
643.859342	-113.994371
643.997652	-114.886469
644.136022	-115.696021
644.274451	-116.325077
644.412940	-116.717823
644.551488	-116.870623
644.690096	-116.812595
644.828763	-116.586720
644.967490	-116.249738
645.106277	-115.873513
645.245124	-115.533812
645.384030	-115.293326
645.522997	-115.190829
645.662023	-115.238351
645.801109	-115.424070
645.940255	-115.719080
646.079460	-116.087349
646.218726	-116.497896
646.358052	-116.934511
646.497438	-117.396422
646.636884	-117.888828
646.776391	-118.409535
646.915957	-118.941982
647.055584	-119.458238
647.195271	-119.929644
647.335019	-120.333394
647.474826	-120.642432
647.614695	-120.804195
647.754623	-120.736338
647.894612	-120.369876
648.034662	-119.713694
648.174772	-118.862262
648.314943	-117.934153
648.455174	-117.014680
648.595466	-116.140303
648.735819	-115.311346
648.876233	-114.511646
649.016707	-113.725712
649.157242	-112.947725
649.297838	-112.182839
649.438495	-111.442665
649.579213	-110.738839
649.719992	-110.078178
649.860832	-109.460852
650.001733	-108.880227
650.142695	-108.324550
650.283718	-107.780144
650.424803	-107.235381
650.565949	-106.684631
650.707156	-106.130764
650.848424	-105.584831
650.989754	-105.063151
651.131145	-104.582887
651.272597	-104.158433
651.414111	-103.799073
651.555687	-103.508284
651.697324	-103.284772
651.839022	-103.124377
651.980782	-103.022387
652.122604	-102.975630
652.264488	-102.983511
652.406433	-103.047910
652.548441	-103.171826
652.690510	-103.357449
652.832640	-103.604426
652.974833	-103.908782
653.117088	-104.262789
653.259405	-104.655838
653.401784	-105.076154
653.544224	-105.512268
653.686727	-105.953767
653.829293	-106.390922
653.971920	-106.813152
654.114609	-107.207377
654.257361	-107.557730
654.400175	-107.847479
654.543052	-108.063155
654.685991	-108.199389
654.828992	-108.261598
654.972056	-108.264832
655.115183	-108.229661
655.258372	-108.175827
655.401623	-108.117010
655.544937	-108.058123
655.688314	-107.995726
655.831754	-107.921080
655.975256	-107.826383
656.118822	-107.710364
656.262450	-107.580828
656.406141	-107.451741
656.549894	-107.335520
656.693711	-107.233884
656.837591	-107.130307
656.981534	-106.987556
657.125540	-106.755485
657.269610	-106.390244
657.413742	-105.877100
657.557938	-105.240206
657.702196	-104.531026
657.846519	-103.806194
657.990904	-103.110964
658.135353	-102.473395
658.279866	-101.906088
658.424441	-101.410613
658.569081	-100.982221
658.713784	-100.613634
658.858550	-100.297810
659.003381	-100.029408
659.148274	-99.804913
659.293232	-99.622139
659.438253	-99.479156
659.583339	-99.373324
659.728488	-99.301031
659.873701	-99.257913
660.018978	-99.239819
660.164318	-99.243737
660.309723	-99.268641
660.455192	-99.315693
660.600725	-99.387670
660.746323	-99.487953
660.891984	-99.619332
661.037710	-99.783208
661.183500	-99.979352
661.329354	-100.206096
661.475272	-100.461262
661.621255	-100.743221
661.767303	-101.051475
661.913415	-101.386543
662.059591	-101.748612
662.205833	-102.134765
662.352138	-102.535481
662.498509	-102.931704
662.644944	-103.294360
662.791443	-103.589302
662.938008	-103.788273
663.084638	-103.881596
663.231332	-103.883648
663.378091	-103.826073
663.524915	-103.743455
663.671804	-103.660267
663.818759	-103.585233
663.965778	-103.513806
664.112863	-103.436281
664.260012	-103.347608
664.407227	-103.253712
664.554507	-103.170518
664.701853	-103.116435
664.849264	-103.102797
664.996740	-103.126156
665.144282	-103.166085
665.291889	-103.190401
665.439561	-103.167397
665.587300	-103.081254
665.735103	-102.941139
665.882973	-102.777942
666.030908	-102.632221
666.178909	-102.542062
666.326976	-102.536776
666.475109	-102.636766
666.623307	-102.856412
666.771571	-103.208032
666.919902	-103.705029
667.068298	-104.363849
667.216761	-105.205257
667.365289	-106.254934
667.513884	-107.544918
667.662545	-109.116580
667.811272	-111.027083
667.960065	-113.360578
668.108925	-116.241445
668.257851	-119.807480
668.406843	-123.767719
668.555902	-125.568505
668.705027	-123.944496
668.854219	-122.117025
669.003478	-121.091125
669.152803	-120.818488
669.302195	-121.112706
669.451653	-121.572287
669.601179	-121.321170
669.750771	-119.632720
669.900430	-117.053340
670.050156	-114.406443
670.199949	-112.017233
670.349808	-109.939934
670.499735	-108.153514
670.649729	-106.622521
670.799790	-105.310267
670.949918	-104.180380
671.100114	-103.197180
671.250377	-102.327235
671.400707	-101.542539
671.551104	-100.823884
671.701569	-100.162621
671.852101	-99.559244
672.002700	-99.019595
672.153368	-98.550132
672.304102	-98.154352
672.454905	-97.831129
672.605775	-97.575226
672.756713	-97.379380
672.907718	-97.236910
673.058791	-97.143709
673.209933	-97.098472
673.361142	-97.100631
673.512419	-97.146531
673.663764	-97.225126
673.815177	-97.314968
673.966658	-97.384425
674.118207	-97.396907
674.269825	-97.319561
674.421510	-97.131640
674.573264	-96.827628
674.725086	-96.414003
674.876977	-95.904619
675.028936	-95.318597
675.180963	-94.680701
675.333059	-94.020724
675.485224	-93.370047
675.637457	-92.756692
675.789758	-92.201108
675.942129	-91.714482
676.094568	-91.299673
676.247075	-90.953788
676.399652	-90.671598
676.552298	-90.448438
676.705012	-90.281716
676.857795	-90.170533
677.010648	-90.113793
677.163569	-90.107884
677.316560	-90.144994
677.469619	-90.212959
677.622748	-90.296800
677.775946	-90.381481
677.929214	-90.454668
678.082551	-90.508535
678.235957	-90.540270
678.389432	-90.551705
678.542977	-90.549045
678.696592	-90.542623
678.850276	-90.546051
679.004030	-90.574044
679.157853	-90.639210
679.311746	-90.748667
679.465709	-90.901941
679.619742	-91.090923
679.773844	-91.302289
679.928017	-91.521598
680.082259	-91.737313
680.236571	-91.942606
680.390954	-92.134318
680.545406	-92.310489
680.699929	-92.469287
680.854522	-92.610809
681.009185	-92.740577
681.163918	-92.871601
681.318722	-93.022374
681.473596	-93.211083
681.628540	-93.448784
681.783555	-93.734465
681.938641	-94.054198
682.093797	-94.384370
682.249023	-94.697700
682.404321	-94.968613
682.559689	-95.174597
682.715128	-95.294416
682.870637	-95.308976
683.026218	-95.209642
683.181869	-95.009627
683.337591	-94.746949
683.493385	-94.473292
683.649249	-94.235947
683.805185	-94.064022
683.961191	-93.963343
684.117269	-93.919791
684.273418	-93.908745
684.429639	-93.907692
684.585930	-93.905879
684.742294	-93.904895
684.898728	-93.909719
685.055234	-93.916448
685.211812	-93.906152
685.368461	-93.851058
685.525182	-93.731708
685.681975	-93.553690
685.838839	-93.349808
685.995775	-93.165549
686.152783	-93.039548
686.309863	-92.990029
686.467014	-93.010455
686.624238	-93.072091
686.781534	-93.131515
686.938902	-93.141315
687.096342	-93.060771
687.253854	-92.862858
687.411438	-92.536868
687.569095	-92.088870
687.726824	-91.541044
687.884626	-90.927978
688.042499	-90.288995
688.200446	-89.659584
688.358465	-89.065639
688.516556	-88.522051
688.674720	-88.034716
688.832957	-87.604042
688.991266	-87.228182
689.149649	-86.904918
689.308104	-86.632036
689.466632	-86.406730
689.625233	-86.224890
689.783906	-86.081112
689.942653	-85.969571
690.101473	-85.885391
690.260367	-85.825623
690.419333	-85.789230
690.578372	-85.775930
690.737485	-85.784584
690.896672	-85.812034
691.055931	-85.853300
691.215264	-85.903164
691.374671	-85.958469
691.534151	-86.019903
691.693704	-86.092271
691.853332	-86.183168
692.013033	-86.300833
692.172807	-86.452485
692.332656	-86.643709
692.492578	-86.878889
692.652575	-87.161813
692.812645	-87.495403
692.972789	-87.880024
693.133007	-88.310174
693.293300	-88.770449
693.453666	-89.232510
693.614107	-89.655349
693.774622	-89.990858
693.935211	-90.194885
694.095875	-90.239868
694.256613	-90.122957
694.417426	-89.866035
694.578313	-89.509087
694.739274	-89.100546
694.900311	-88.687613
695.061421	-88.308347
695.222607	-87.986935
695.383868	-87.732640
695.545203	-87.542135
695.706613	-87.404661
695.868098	-87.308576
696.029658	-87.246717
696.191293	-87.218073
696.353003	-87.224887
696.514789	-87.267075
696.676649	-87.337829
696.838585	-87.423739
697.000596	-87.510116
697.162682	-87.589133
697.324844	-87.665367
697.487081	-87.754263
697.649394	-87.874093
697.811782	-88.036200
697.974246	-88.238308
698.136786	-88.462956
698.299401	-88.681004
698.462092	-88.858453
698.624859	-88.963773
698.787702	-88.973597
698.950621	-88.876393
699.113616	-88.675057
699.276686	-88.387713
699.439833	-88.044258
699.603056	-87.678675
699.766355	-87.320842
699.929731	-86.991749
700.093183	-86.703481
700.256711	-86.462583
700.420315	-86.274042
700.583996	-86.143348
700.747754	-86.075743
700.911588	-86.073357
701.075499	-86.132264
701.239486	-86.241416
701.403550	-86.384765
701.567691	-86.546321
701.731909	-86.715995
701.896203	-86.892833
702.060575	-87.083183
702.225024	-87.294810
702.389549	-87.530033
702.554152	-87.781316
702.718832	-88.030672
702.883589	-88.253069
703.048424	-88.422771
703.213335	-88.520471
703.378324	-88.538681
703.543391	-88.483630
703.708535	-88.372875
703.873757	-88.229603
704.039056	-88.075605
704.204433	-87.925128
704.369887	-87.781245
704.535420	-87.635530
704.701030	-87.471303
704.866718	-87.269950
705.032484	-87.018262
705.198328	-86.713494
705.364250	-86.363368
705.530250	-85.980980
705.696328	-85.577591
705.862485	-85.157271
706.028720	-84.716283
706.195033	-84.247576
706.361424	-83.748357
706.527894	-83.226049
706.694442	-82.698686
706.861069	-82.189643
707.027775	-81.720315
707.194559	-81.304826
707.361422	-80.948577
707.528363	-80.650285
707.695384	-80.405693
707.862483	-80.210866
708.029661	-80.063354
708.196918	-79.960819
708.364254	-79.898404
708.531670	-79.866936
708.699164	-79.853729
708.866738	-79.846221
709.034391	-79.836433
709.202123	-79.823118
709.369935	-79.809756
709.537826	-79.799721
709.705796	-79.792309
709.873847	-79.782959
710.041976	-79.767824
710.210186	-79.749497
710.378475	-79.739112
710.546844	-79.752566
710.715292	-79.802931
710.883821	-79.893688
711.052429	-80.016720
711.221118	-80.156409
711.389887	-80.298285
711.558735	-80.437367
711.727664	-80.580515
711.896673	-80.741213
712.065763	-80.930593
712.234932	-81.150786
712.404183	-81.394308
712.573513	-81.649487
712.742924	-81.908233
712.912416	-82.171075
713.081988	-82.446479
713.251641	-82.745553
713.421375	-83.076792
713.591190	-83.443996
713.761085	-83.847207
713.931061	-84.283745
714.101119	-84.746354
714.271257	-85.218736
714.441476	-85.672672
714.611777	-86.072820
714.782159	-86.391284
714.952622	-86.623463
715.123166	-86.790816
715.293792	-86.926477
715.464499	-87.055435
715.635288	-87.183465
715.806158	-87.299272
715.977110	-87.385548
716.148143	-87.430266
716.319259	-87.430927
716.490456	-87.390708
716.661735	-87.311816
716.833096	-87.191845
717.004538	-87.024687
717.176063	-86.803682
717.347670	-86.523837
717.519359	-86.181705
717.691130	-85.773506
717.862984	-85.293636
718.034920	-84.736240
718.206938	-84.100640
718.379039	-83.397923
718.551222	-82.653357
718.723488	-81.901382
718.895836	-81.175600
719.068267	-80.499413
719.240781	-79.881403
719.413377	-79.316338
719.586057	-78.790731
719.758819	-78.290532
719.931664	-77.807389
720.104593	-77.340580
720.277604	-76.894036
720.450699	-76.471288
720.623876	-76.071947
720.797137	-75.691903
720.970482	-75.326656
721.143910	-74.975296
721.317421	-74.642489
721.491016	-74.337374
721.664694	-74.070424
721.838456	-73.850408
722.012302	-73.682878
722.186231	-73.570207
722.360244	-73.512219
722.534342	-73.506339
722.708523	-73.546837
722.882788	-73.623876
723.057137	-73.723692
723.231570	-73.831092
723.406088	-73.934082
723.580689	-74.028513
723.755375	-74.119664
723.930146	-74.219279
724.105000	-74.339568
724.279940	-74.487426
724.454963	-74.661633
724.630072	-74.853938
724.805265	-75.053158
724.980543	-75.250070
725.155905	-75.440515
725.331353	-75.625267
