# 2022-03-22_08.31.26
# shape = sech2
# FWHM_ps = 0.11
# carrier_nm = 1542
# frep_MHz = 12126
# pow_mW = 8000
# GDD = 0.0
# propa_len = 0.098
# untap_len = 0.01
# taper_len = 0.038
# waist_len = 0.02
# uptap_len = 0.02
# untap_scale = 1.0
# waist_scale = 0.27368421052631586
# workingDir = NL_20110305_12 (Spirou)
# axis = slow
# window_ps = 10.0
# steps = 200
# points = 21700
# 
# wavelength [nm]	 power spectral density [dB]
600.043425	-80.608091
600.163550	-80.525028
600.283723	-80.483552
600.403943	-80.480792
600.524212	-80.511057
600.644529	-80.565017
600.764895	-80.630724
600.885308	-80.695098
601.005770	-80.745430
601.126280	-80.771448
601.246839	-80.767359
601.367446	-80.732397
601.488101	-80.670696
601.608804	-80.589266
601.729557	-80.496053
601.850357	-80.398238
601.971206	-80.300971
602.092104	-80.207067
602.213050	-80.116855
602.334045	-80.029025
602.455089	-79.941263
602.576181	-79.851016
602.697322	-79.756025
602.818511	-79.654381
602.939749	-79.544427
603.061036	-79.424431
603.182372	-79.292180
603.303757	-79.143985
603.425191	-78.975554
603.546673	-78.782412
603.668204	-78.561228
603.789785	-78.310913
603.911414	-78.033342
604.033092	-77.733478
604.154820	-77.418728
604.276596	-77.098348
604.398422	-76.781773
604.520297	-76.477419
604.642220	-76.191787
604.764193	-75.928629
604.886216	-75.688889
605.008287	-75.470401
605.130408	-75.268211
605.252578	-75.075014
605.374798	-74.882337
605.497066	-74.681916
605.619385	-74.467077
605.741752	-74.233772
605.864169	-73.981245
605.986636	-73.712145
606.109152	-73.432143
606.231718	-73.148833
606.354333	-72.870205
606.476998	-72.603507
606.599712	-72.354268
606.722476	-72.125947
606.845290	-71.920029
606.968154	-71.735867
607.091067	-71.570850
607.214030	-71.420768
607.337043	-71.280550
607.460106	-71.145033
607.583219	-71.009898
607.706381	-70.871985
607.829594	-70.729663
607.952856	-70.582900
608.076169	-70.433242
608.199531	-70.283444
608.322944	-70.136854
608.446407	-69.996612
608.569920	-69.865060
608.693483	-69.743575
608.817096	-69.632710
608.940759	-69.532209
609.064473	-69.440865
609.188237	-69.356749
609.312051	-69.277718
609.435916	-69.201709
609.559831	-69.127458
609.683796	-69.054563
609.807812	-68.983348
609.931878	-68.914828
610.055995	-68.850587
610.180162	-68.792624
610.304380	-68.742873
610.428648	-68.702853
610.552967	-68.673304
610.677337	-68.654053
610.801757	-68.644244
610.926228	-68.642372
611.050750	-68.646514
611.175323	-68.654430
611.299946	-68.663924
611.424620	-68.673272
611.549345	-68.681562
611.674121	-68.688804
611.798948	-68.695920
611.923826	-68.704466
612.048755	-68.716434
612.173734	-68.733950
612.298765	-68.758957
612.423847	-68.792896
612.548980	-68.836458
612.674165	-68.889555
612.799400	-68.951351
612.924687	-69.020405
613.050025	-69.094971
613.175414	-69.173143
613.300854	-69.253329
613.426346	-69.334635
613.551889	-69.416866
613.677484	-69.500498
613.803130	-69.586407
613.928827	-69.675829
614.054576	-69.770028
614.180377	-69.870015
614.306229	-69.976011
614.432132	-70.086849
614.558087	-70.199917
614.684094	-70.311298
614.810153	-70.416136
614.936263	-70.509167
615.062425	-70.585173
615.188639	-70.639885
615.314904	-70.670564
615.441222	-70.676560
615.567591	-70.659326
615.694012	-70.622013
615.820486	-70.568834
615.947011	-70.504279
616.073588	-70.432477
616.200217	-70.356416
616.326898	-70.277342
616.453632	-70.194681
616.580417	-70.106538
616.707255	-70.010186
616.834144	-69.902874
616.961086	-69.782163
617.088081	-69.646333
617.215127	-69.494804
617.342226	-69.328625
617.469378	-69.150336
617.596581	-68.963497
617.723837	-68.772176
617.851146	-68.580427
617.978507	-68.391880
618.105920	-68.209405
618.233386	-68.034835
618.360905	-67.868924
618.488476	-67.711549
618.616100	-67.561870
618.743777	-67.418738
618.871506	-67.280862
618.999288	-67.147019
619.127123	-67.016270
619.255011	-66.888277
619.382951	-66.763433
619.510945	-66.642807
619.638991	-66.528022
619.767090	-66.420904
619.895243	-66.323297
620.023448	-66.236883
620.151706	-66.163070
620.280017	-66.102824
620.408382	-66.056514
620.536799	-66.023922
620.665270	-66.004315
620.793794	-65.996588
620.922371	-65.999387
621.051002	-66.011364
621.179686	-66.031272
621.308423	-66.058173
621.437213	-66.091641
621.566057	-66.131986
621.694954	-66.180147
621.823905	-66.237702
621.952909	-66.306607
622.081967	-66.389053
622.211079	-66.487252
622.340244	-66.603256
622.469462	-66.738891
622.598735	-66.895435
622.728061	-67.073570
622.857441	-67.273232
622.986874	-67.493614
623.116361	-67.733179
623.245903	-67.989820
623.375498	-68.261056
623.505147	-68.544118
623.634850	-68.836399
623.764606	-69.135575
623.894417	-69.440026
624.024282	-69.749074
624.154201	-70.062913
624.284174	-70.382475
624.414202	-70.709199
624.544283	-71.044557
624.674419	-71.389703
624.804609	-71.744670
624.934853	-72.107321
625.065151	-72.472671
625.195504	-72.832332
625.325911	-73.174075
625.456373	-73.482612
625.586889	-73.740555
625.717460	-73.930650
625.848085	-74.039335
625.978764	-74.059491
626.109498	-73.992085
626.240287	-73.845868
626.371131	-73.634658
626.502029	-73.374412
626.632982	-73.080484
626.763989	-72.765542
626.895052	-72.438959
627.026169	-72.107087
627.157341	-71.773704
627.288568	-71.441028
627.419850	-71.110306
627.551187	-70.782391
627.682579	-70.458267
627.814026	-70.139455
627.945528	-69.828218
628.077085	-69.527337
628.208697	-69.239658
628.340364	-68.968003
628.472087	-68.714939
628.603865	-68.482744
628.735698	-68.273295
628.867586	-68.087837
628.999530	-67.926915
629.131529	-67.790382
629.263584	-67.677535
629.395694	-67.587201
629.527859	-67.517719
629.660080	-67.467166
629.792357	-67.433356
629.924689	-67.414218
630.057077	-67.407755
630.189520	-67.412327
630.322019	-67.426749
630.454574	-67.450459
630.587184	-67.483581
630.719851	-67.527004
630.852573	-67.582136
630.985351	-67.650911
631.118185	-67.735553
631.251075	-67.838414
631.384021	-67.961891
631.517023	-68.108303
631.650081	-68.279810
631.783195	-68.478362
631.916365	-68.705492
632.049592	-68.962369
632.182874	-69.249908
632.316213	-69.568767
632.449608	-69.919424
632.583059	-70.302289
632.716567	-70.717950
632.850131	-71.167248
632.983751	-71.651457
633.117428	-72.172885
633.251161	-72.734832
633.384951	-73.342193
633.518797	-74.002029
633.652700	-74.723870
633.786660	-75.520598
633.920676	-76.409457
634.054749	-77.413305
634.188879	-78.562752
634.323065	-79.899840
634.457308	-81.482516
634.591608	-83.388000
634.725965	-85.692734
634.860379	-88.311966
634.994850	-90.275533
635.129377	-89.625515
635.263962	-87.173479
635.398604	-84.696645
635.533303	-82.622436
635.668058	-80.923279
635.802872	-79.517853
635.937742	-78.338951
636.072669	-77.336639
636.207654	-76.474814
636.342696	-75.726393
636.477796	-75.070394
636.612953	-74.490267
636.748167	-73.972671
636.883439	-73.506739
637.018768	-73.083697
637.154155	-72.696756
637.289599	-72.340497
637.425101	-72.010647
637.560660	-71.704172
637.696277	-71.419248
637.831952	-71.155046
637.967685	-70.911650
638.103475	-70.689427
638.239324	-70.489079
638.375230	-70.311328
638.511194	-70.157024
638.647215	-70.026986
638.783295	-69.921771
638.919433	-69.841829
639.055629	-69.787014
639.191883	-69.756665
639.328195	-69.750104
639.464565	-69.766393
639.600994	-69.804314
639.737481	-69.862296
639.874025	-69.938402
640.010629	-70.030372
640.147290	-70.135825
640.284010	-70.252469
640.420789	-70.377951
640.557625	-70.509980
640.694521	-70.646305
640.831474	-70.784854
640.968487	-70.923909
641.105558	-71.061958
641.242687	-71.197666
641.379876	-71.329972
641.517123	-71.457943
641.654429	-71.580898
641.791793	-71.698164
641.929216	-71.809363
642.066699	-71.913959
642.204240	-72.011250
642.341840	-72.100499
642.479499	-72.181161
642.617217	-72.253200
642.754994	-72.316709
642.892830	-72.371720
643.030726	-72.418247
643.168680	-72.456469
643.306694	-72.486924
643.444767	-72.510500
643.582899	-72.528144
643.721091	-72.540667
643.859342	-72.548755
643.997652	-72.552903
644.136022	-72.553405
644.274451	-72.550517
644.412940	-72.544423
644.551488	-72.535005
644.690096	-72.522171
644.828763	-72.506141
644.967490	-72.487337
645.106277	-72.466295
645.245124	-72.443618
645.384030	-72.420337
645.522997	-72.397807
645.662023	-72.377577
645.801109	-72.361352
645.940255	-72.351073
646.079460	-72.348776
646.218726	-72.356283
646.358052	-72.375303
646.497438	-72.406971
646.636884	-72.452075
646.776391	-72.511184
646.915957	-72.584561
647.055584	-72.671946
647.195271	-72.772298
647.335019	-72.883583
647.474826	-73.003073
647.614695	-73.127634
647.754623	-73.253595
647.894612	-73.376663
648.034662	-73.491911
648.174772	-73.593901
648.314943	-73.677260
648.455174	-73.737097
648.595466	-73.769283
648.735819	-73.769963
648.876233	-73.736627
649.016707	-73.667626
649.157242	-73.562741
649.297838	-73.423464
649.438495	-73.252486
649.579213	-73.052975
649.719992	-72.828535
649.860832	-72.583113
650.001733	-72.320771
650.142695	-72.045877
650.283718	-71.762589
650.424803	-71.474846
650.565949	-71.186440
650.707156	-70.900835
650.848424	-70.620956
650.989754	-70.349510
651.131145	-70.089065
651.272597	-69.841941
651.414111	-69.610337
651.555687	-69.395991
651.697324	-69.200376
651.839022	-69.024645
651.980782	-68.869706
652.122604	-68.736154
652.264488	-68.624456
652.406433	-68.534844
652.548441	-68.467489
652.690510	-68.422475
652.832640	-68.399514
652.974833	-68.397999
653.117088	-68.417251
653.259405	-68.456476
653.401784	-68.514861
653.544224	-68.591546
653.686727	-68.685422
653.829293	-68.795072
653.971920	-68.918878
654.114609	-69.055158
654.257361	-69.202186
654.400175	-69.358201
654.543052	-69.521338
654.685991	-69.689552
654.828992	-69.860460
654.972056	-70.031413
655.115183	-70.199185
655.258372	-70.360118
655.401623	-70.510286
655.544937	-70.645634
655.688314	-70.761766
655.831754	-70.853783
655.975256	-70.917018
656.118822	-70.946978
656.262450	-70.939940
656.406141	-70.893505
656.549894	-70.806845
656.693711	-70.680599
656.837591	-70.516732
656.981534	-70.318532
657.125540	-70.090568
657.269610	-69.838334
657.413742	-69.567742
657.557938	-69.284652
657.702196	-68.994330
657.846519	-68.701447
657.990904	-68.409964
658.135353	-68.123311
658.279866	-67.844282
658.424441	-67.575105
658.569081	-67.317494
658.713784	-67.072755
658.858550	-66.841654
659.003381	-66.624553
659.148274	-66.421516
659.293232	-66.232285
659.438253	-66.056514
659.583339	-65.893904
659.728488	-65.744156
659.873701	-65.606744
660.018978	-65.481040
660.164318	-65.366344
660.309723	-65.261988
660.455192	-65.167498
660.600725	-65.082694
660.746323	-65.007276
660.891984	-64.941075
661.037710	-64.883984
661.183500	-64.836106
661.329354	-64.797637
661.475272	-64.768806
661.621255	-64.749831
661.767303	-64.740877
661.913415	-64.742114
662.059591	-64.753793
662.205833	-64.776162
662.352138	-64.809375
662.498509	-64.853437
662.644944	-64.908239
662.791443	-64.973534
662.938008	-65.048900
663.084638	-65.133647
663.231332	-65.226797
663.378091	-65.326997
663.524915	-65.432760
663.671804	-65.542475
663.818759	-65.654290
663.965778	-65.766077
664.112863	-65.875371
664.260012	-65.979375
664.407227	-66.075218
664.554507	-66.160115
664.701853	-66.231493
664.849264	-66.286791
664.996740	-66.323846
665.144282	-66.340768
665.291889	-66.336177
665.439561	-66.309424
665.587300	-66.260539
665.735103	-66.190116
665.882973	-66.099319
666.030908	-65.989779
666.178909	-65.863327
666.326976	-65.721991
666.475109	-65.567939
666.623307	-65.403472
666.771571	-65.230811
666.919902	-65.052144
667.068298	-64.869586
667.216761	-64.685090
667.365289	-64.500456
667.513884	-64.317340
667.662545	-64.137262
667.811272	-63.961625
667.960065	-63.791684
668.108925	-63.628579
668.257851	-63.473422
668.406843	-63.327344
668.555902	-63.191316
668.705027	-63.066211
668.854219	-62.952808
669.003478	-62.851927
669.152803	-62.764327
669.302195	-62.690778
669.451653	-62.631925
669.601179	-62.588337
669.750771	-62.560548
669.900430	-62.549090
670.050156	-62.554477
670.199949	-62.577199
670.349808	-62.617629
670.499735	-62.676075
670.649729	-62.752906
670.799790	-62.848426
670.949918	-62.962845
671.100114	-63.096282
671.250377	-63.248790
671.400707	-63.420406
671.551104	-63.610986
671.701569	-63.820303
671.852101	-64.048012
672.002700	-64.293551
672.153368	-64.556069
672.304102	-64.834369
672.454905	-65.126767
672.605775	-65.431124
672.756713	-65.744599
672.907718	-66.063551
673.058791	-66.383374
673.209933	-66.698387
673.361142	-67.001819
673.512419	-67.285950
673.663764	-67.542207
673.815177	-67.761574
673.966658	-67.935076
674.118207	-68.054914
674.269825	-68.115153
674.421510	-68.112720
674.573264	-68.047686
674.725086	-67.923261
674.876977	-67.745191
675.028936	-67.520790
675.180963	-67.258351
675.333059	-66.966412
675.485224	-66.653095
675.637457	-66.325709
675.789758	-65.990482
675.942129	-65.652576
676.094568	-65.315966
676.247075	-64.984089
676.399652	-64.659688
676.552298	-64.344679
676.705012	-64.040498
676.857795	-63.748134
677.010648	-63.468379
677.163569	-63.201802
677.316560	-62.948966
677.469619	-62.710188
677.622748	-62.485529
677.775946	-62.274947
677.929214	-62.078396
678.082551	-61.895980
678.235957	-61.727661
678.389432	-61.573305
678.542977	-61.432659
678.696592	-61.305396
678.850276	-61.191203
679.004030	-61.089800
679.157853	-61.000843
679.311746	-60.923893
679.465709	-60.858428
679.619742	-60.803945
679.773844	-60.759921
679.928017	-60.725771
680.082259	-60.700824
680.236571	-60.684220
680.390954	-60.675120
680.545406	-60.672674
680.699929	-60.676089
680.854522	-60.684509
681.009185	-60.696952
681.163918	-60.712381
681.318722	-60.729744
681.473596	-60.748032
681.628540	-60.766399
681.783555	-60.783845
681.938641	-60.799325
682.093797	-60.811964
682.249023	-60.821043
682.404321	-60.825961
682.559689	-60.826173
682.715128	-60.821333
682.870637	-60.811062
683.026218	-60.795273
683.181869	-60.774027
683.337591	-60.747541
683.493385	-60.716107
683.649249	-60.680094
683.805185	-60.639952
683.961191	-60.596243
684.117269	-60.549654
684.273418	-60.500919
684.429639	-60.450797
684.585930	-60.399992
684.742294	-60.349158
684.898728	-60.299048
685.055234	-60.250345
685.211812	-60.203667
685.368461	-60.159615
685.525182	-60.118718
685.681975	-60.081553
685.838839	-60.048624
685.995775	-60.020382
686.152783	-59.997273
686.309863	-59.979599
686.467014	-59.967593
686.624238	-59.961565
686.781534	-59.961703
686.938902	-59.968186
687.096342	-59.981132
687.253854	-60.000589
687.411438	-60.026629
687.569095	-60.059199
687.726824	-60.098302
687.884626	-60.143791
688.042499	-60.195419
688.200446	-60.252959
688.358465	-60.316016
688.516556	-60.384218
688.674720	-60.456976
688.832957	-60.533508
688.991266	-60.613008
689.149649	-60.694676
689.308104	-60.777486
689.466632	-60.860338
689.625233	-60.941907
689.783906	-61.020689
689.942653	-61.095090
690.101473	-61.163477
690.260367	-61.224185
690.419333	-61.275528
690.578372	-61.315852
690.737485	-61.343566
690.896672	-61.357319
691.055931	-61.356081
691.215264	-61.338981
691.374671	-61.305467
691.534151	-61.255330
691.693704	-61.188745
691.853332	-61.106278
692.013033	-61.008840
692.172807	-60.897657
692.332656	-60.774187
692.492578	-60.640112
692.652575	-60.497228
692.812645	-60.347217
692.972789	-60.191788
693.133007	-60.032588
693.293300	-59.871158
693.453666	-59.709079
693.614107	-59.547707
693.774622	-59.388280
693.935211	-59.231914
694.095875	-59.079547
694.256613	-58.931944
694.417426	-58.789708
694.578313	-58.653421
694.739274	-58.523470
694.900311	-58.400161
695.061421	-58.283758
695.222607	-58.174321
695.383868	-58.071886
695.545203	-57.976565
695.706613	-57.888296
695.868098	-57.806959
696.029658	-57.732326
696.191293	-57.664156
696.353003	-57.602246
696.514789	-57.546397
696.676649	-57.496385
696.838585	-57.452033
697.000596	-57.413039
697.162682	-57.379087
697.324844	-57.349798
697.487081	-57.324822
697.649394	-57.303934
697.811782	-57.286932
697.974246	-57.273502
698.136786	-57.263442
698.299401	-57.256538
698.462092	-57.252532
698.624859	-57.251266
698.787702	-57.252628
698.950621	-57.256481
699.113616	-57.262738
699.276686	-57.271435
699.439833	-57.282621
699.603056	-57.296260
699.766355	-57.312329
699.929731	-57.330880
700.093183	-57.352050
700.256711	-57.376100
700.420315	-57.403245
700.583996	-57.433688
700.747754	-57.467543
700.911588	-57.504862
701.075499	-57.545741
701.239486	-57.590311
701.403550	-57.638738
701.567691	-57.691027
701.731909	-57.747047
701.896203	-57.806545
702.060575	-57.869288
702.225024	-57.935002
702.389549	-58.003356
702.554152	-58.073904
702.718832	-58.145888
702.883589	-58.218491
703.048424	-58.290853
703.213335	-58.362125
703.378324	-58.431357
703.543391	-58.497513
703.708535	-58.559480
703.873757	-58.616002
704.039056	-58.666028
704.204433	-58.708466
704.369887	-58.742340
704.535420	-58.766889
704.701030	-58.781265
704.866718	-58.784820
705.032484	-58.777217
705.198328	-58.758341
705.364250	-58.728249
705.530250	-58.687221
705.696328	-58.635793
705.862485	-58.574714
706.028720	-58.504853
706.195033	-58.427164
706.361424	-58.342672
706.527894	-58.252537
706.694442	-58.157962
706.861069	-58.060066
707.027775	-57.959961
707.194559	-57.858729
707.361422	-57.757363
707.528363	-57.656763
707.695384	-57.557633
707.862483	-57.460543
708.029661	-57.365988
708.196918	-57.274429
708.364254	-57.186221
708.531670	-57.101729
708.699164	-57.021116
708.866738	-56.944229
709.034391	-56.870887
709.202123	-56.800942
709.369935	-56.734147
709.537826	-56.670252
709.705796	-56.608952
709.873847	-56.549818
710.041976	-56.492413
710.210186	-56.436367
710.378475	-56.381306
710.546844	-56.326865
710.715292	-56.272719
710.883821	-56.218494
711.052429	-56.163989
711.221118	-56.109126
711.389887	-56.053806
711.558735	-55.998030
711.727664	-55.941953
711.896673	-55.885804
712.065763	-55.829798
712.234932	-55.774217
712.404183	-55.719566
712.573513	-55.666212
712.742924	-55.614625
712.912416	-55.565486
713.081988	-55.519399
713.251641	-55.476958
713.421375	-55.438801
713.591190	-55.405526
713.761085	-55.377724
713.931061	-55.355878
714.101119	-55.340584
714.271257	-55.332481
714.441476	-55.331985
714.611777	-55.339530
714.782159	-55.355426
714.952622	-55.380024
715.123166	-55.413635
715.293792	-55.456345
715.464499	-55.508264
715.635288	-55.569337
715.806158	-55.639354
715.977110	-55.718072
716.148143	-55.805083
716.319259	-55.899855
716.490456	-56.001705
716.661735	-56.109737
716.833096	-56.222914
717.004538	-56.340011
717.176063	-56.459624
717.347670	-56.580226
717.519359	-56.700111
717.691130	-56.817252
717.862984	-56.929536
718.034920	-57.034857
718.206938	-57.131023
718.379039	-57.215888
718.551222	-57.287586
718.723488	-57.344144
718.895836	-57.384127
719.068267	-57.406431
719.240781	-57.410417
719.413377	-57.395892
719.586057	-57.363093
719.758819	-57.312721
719.931664	-57.245785
720.104593	-57.163832
720.277604	-57.068564
720.450699	-56.961761
720.623876	-56.845311
720.797137	-56.721144
720.970482	-56.591134
721.143910	-56.457093
721.317421	-56.320538
721.491016	-56.182790
721.664694	-56.044934
721.838456	-55.908013
722.012302	-55.772912
722.186231	-55.640409
722.360244	-55.511190
722.534342	-55.385569
722.708523	-55.263773
722.882788	-55.146004
723.057137	-55.032401
723.231570	-54.923145
723.406088	-54.818276
723.580689	-54.717793
723.755375	-54.621649
723.930146	-54.529884
724.105000	-54.442511
724.279940	-54.359554
724.454963	-54.281086
724.630072	-54.207160
724.805265	-54.137766
724.980543	-54.072961
725.155905	-54.012912
725.331353	-53.957828
725.506885	-53.907922
725.682503	-53.863467
725.858205	-53.824704
726.033993	-53.791948
726.209865	-53.765569
726.385823	-53.746101
726.561866	-53.734025
726.737995	-53.729779
726.914209	-53.733722
727.090508	-53.746236
727.266893	-53.767712
727.443364	-53.798539
727.619920	-53.839163
727.796562	-53.889847
727.973290	-53.950758
728.150103	-54.022110
728.327003	-54.104043
728.503988	-54.196740
728.681060	-54.300185
728.858218	-54.414304
729.035461	-54.538817
729.212791	-54.673455
729.390208	-54.817770
729.567710	-54.971135
729.745299	-55.132789
