# 2022-03-22_10.13.40
# shape = sech2
# FWHM_ps = 0.11
# carrier_nm = 1542
# frep_MHz = 12126
# pow_mW = 8000
# GDD = 0.0
# propa_len = 0.11866666666666668
# untap_len = 0.01
# taper_len = 0.05866666666666667
# waist_len = 0.02
# uptap_len = 0.02
# untap_scale = 1.0
# waist_scale = 0.4
# workingDir = NL_20110305_12 (Spirou)
# axis = slow
# window_ps = 10.0
# steps = 200
# points = 21700
# 
# wavelength [nm]	 power spectral density [dB]
600.043425	-153.720322
600.163550	-155.674278
600.283723	-157.554572
600.403943	-158.896752
600.524212	-159.571987
600.644529	-160.010280
600.764895	-160.712026
600.885308	-161.949024
601.005770	-163.703214
601.126280	-165.251334
601.246839	-164.958130
601.367446	-162.947285
601.488101	-160.770224
601.608804	-159.002870
601.729557	-157.679062
601.850357	-156.745202
601.971206	-156.166660
602.092104	-155.940335
602.213050	-156.089201
602.334045	-156.657427
602.455089	-157.711478
602.576181	-159.347727
602.697322	-161.698019
602.818511	-164.852338
602.939749	-168.138819
603.061036	-168.658973
603.182372	-166.652782
603.303757	-164.819406
603.425191	-163.536823
603.546673	-162.440550
603.668204	-161.141325
603.789785	-159.516172
603.911414	-157.735216
604.033092	-156.031976
604.154820	-154.557675
604.276596	-153.383655
604.398422	-152.539665
604.520297	-152.039324
604.642220	-151.890939
604.764193	-152.097819
604.886216	-152.646810
605.008287	-153.474962
605.130408	-154.400037
605.252578	-155.055901
605.374798	-155.053665
605.497066	-154.396530
605.619385	-153.453654
605.741752	-152.536740
605.864169	-151.755535
605.986636	-151.089188
606.109152	-150.471025
606.231718	-149.852138
606.354333	-149.238128
606.476998	-148.687255
606.599712	-148.282005
606.722476	-148.103000
606.845290	-148.219748
606.968154	-148.694630
607.091067	-149.592128
607.214030	-150.985308
607.337043	-152.934329
607.460106	-155.305549
607.583219	-157.043549
607.706381	-156.354859
607.829594	-154.195220
607.952856	-152.183286
608.076169	-150.698320
608.199531	-149.717045
608.322944	-149.172283
608.446407	-149.015294
608.569920	-149.221198
608.693483	-149.786837
608.817096	-150.729634
608.940759	-152.088775
609.064473	-153.927950
609.188237	-156.329610
609.312051	-159.311314
609.435916	-162.300864
609.559831	-163.182843
609.683796	-161.618754
609.807812	-159.817432
609.931878	-158.564740
610.055995	-157.905413
610.180162	-157.798236
610.304380	-158.199625
610.428648	-158.942755
610.552967	-159.382187
610.677337	-158.413420
610.801757	-156.118014
610.926228	-153.613668
611.050750	-151.483237
611.175323	-149.850239
611.299946	-148.706748
611.424620	-148.025489
611.549345	-147.786577
611.674121	-147.982631
611.798948	-148.619088
611.923826	-149.712714
612.048755	-151.284689
612.173734	-153.330123
612.298765	-155.697542
612.423847	-157.750582
612.548980	-158.323817
612.674165	-157.311213
612.799400	-155.721200
612.924687	-154.096556
613.050025	-152.559203
613.175414	-151.152656
613.300854	-149.927350
613.426346	-148.926367
613.551889	-148.163065
613.677484	-147.605884
613.803130	-147.166704
613.928827	-146.704496
614.054576	-146.076448
614.180377	-145.233874
614.306229	-144.267509
614.432132	-143.343124
614.558087	-142.615335
614.684094	-142.197295
614.810153	-142.173121
614.936263	-142.623201
615.062425	-143.655046
615.188639	-145.454615
615.314904	-148.417480
615.441222	-153.647590
615.567591	-164.004758
615.694012	-155.502332
615.820486	-150.048930
615.947011	-147.250686
616.073588	-145.709324
616.200217	-144.941388
616.326898	-144.709207
616.453632	-144.856025
616.580417	-145.250187
616.707255	-145.772357
616.834144	-146.335541
616.961086	-146.923376
617.088081	-147.612182
617.215127	-148.558724
617.342226	-149.982366
617.469378	-152.177599
617.596581	-155.468871
617.723837	-158.614297
617.851146	-156.271588
617.978507	-152.347436
618.105920	-149.568676
618.233386	-147.760292
618.360905	-146.661690
618.488476	-146.106258
618.616100	-145.979418
618.743777	-146.187448
618.871506	-146.640008
618.999288	-147.242615
619.127123	-147.898473
619.255011	-148.518903
619.382951	-149.039640
619.510945	-149.439378
619.638991	-149.754338
619.767090	-150.077414
619.895243	-150.535923
620.023448	-151.256149
620.151706	-152.314535
620.280017	-153.628421
620.408382	-154.719431
620.536799	-154.762660
620.665270	-153.708187
620.793794	-152.396799
620.922371	-151.394151
621.051002	-150.845535
621.179686	-150.706831
621.308423	-150.833034
621.437213	-150.980865
621.566057	-150.834984
621.694954	-150.157475
621.823905	-148.967357
621.952909	-147.496953
622.081967	-146.004970
622.211079	-144.681979
622.340244	-143.652712
622.469462	-143.002636
622.598735	-142.801899
622.728061	-143.126362
622.857441	-144.082967
622.986874	-145.855886
623.116361	-148.826640
623.245903	-154.027531
623.375498	-165.347074
623.505147	-158.449159
623.634850	-153.219073
623.764606	-151.378182
623.894417	-151.440357
624.024282	-153.279686
624.154201	-157.758659
624.284174	-169.401691
624.414202	-161.041682
624.544283	-155.646915
624.674419	-153.982804
624.804609	-154.854649
624.934853	-159.424336
625.065151	-165.073685
625.195504	-153.628196
625.325911	-148.060504
625.456373	-144.708754
625.586889	-142.561948
625.717460	-141.239900
625.848085	-140.561373
625.978764	-140.431039
626.109498	-140.801498
626.240287	-141.661618
626.371131	-143.039706
626.502029	-145.021819
626.632982	-147.791950
626.763989	-151.672168
626.895052	-156.409188
627.026169	-156.549633
627.157341	-153.038964
627.288568	-150.584291
627.419850	-149.130469
627.551187	-148.218857
627.682579	-147.448493
627.814026	-146.550324
627.945528	-145.504484
628.077085	-144.484208
628.208697	-143.675973
628.340364	-143.186804
628.472087	-143.044012
628.603865	-143.211665
628.735698	-143.597061
628.867586	-144.062834
628.999530	-144.477765
629.131529	-144.802316
629.263584	-145.125942
629.395694	-145.608778
629.527859	-146.403258
629.660080	-147.621571
629.792357	-149.335288
629.924689	-151.570574
630.057077	-154.265191
630.189520	-157.143473
630.322019	-159.493835
630.454574	-160.196379
630.587184	-158.879473
630.719851	-156.583336
630.852573	-154.307456
630.985351	-152.430254
631.118185	-151.001731
631.251075	-149.946340
631.384021	-149.132546
631.517023	-148.405532
631.650081	-147.634951
631.783195	-146.773292
631.916365	-145.871892
632.049592	-145.036123
632.182874	-144.370417
632.316213	-143.953045
632.449608	-143.833663
632.583059	-144.031513
632.716567	-144.514537
632.850131	-145.139984
632.983751	-145.575233
633.117428	-145.394438
633.251161	-144.508197
633.384951	-143.278515
633.518797	-142.089584
633.652700	-141.134204
633.786660	-140.473353
633.920676	-140.115881
634.054749	-140.059907
634.188879	-140.309287
634.323065	-140.875371
634.457308	-141.763670
634.591608	-142.934052
634.725965	-144.217192
634.860379	-145.241327
634.994850	-145.652890
635.129377	-145.610330
635.263962	-145.688159
635.398604	-146.447557
635.533303	-148.487793
635.668058	-153.202364
635.802872	-167.055133
635.937742	-152.469170
636.072669	-146.381117
636.207654	-143.085181
636.342696	-141.132619
636.477796	-140.057674
636.612953	-139.649719
636.748167	-139.789435
636.883439	-140.388018
637.018768	-141.350020
637.154155	-142.539858
637.289599	-143.759953
637.425101	-144.781996
637.560660	-145.455809
637.696277	-145.791262
637.831952	-145.901438
637.967685	-145.905499
638.103475	-145.899388
638.239324	-145.957328
638.375230	-146.107630
638.511194	-146.277963
638.647215	-146.259758
638.783295	-145.817993
638.919433	-144.951773
639.055629	-143.936812
639.191883	-143.083861
639.328195	-142.595987
639.464565	-142.585625
639.600994	-143.121054
639.737481	-144.245615
639.874025	-145.941876
640.010629	-147.954359
640.147290	-149.438083
640.284010	-149.480824
640.420789	-148.601879
640.557625	-147.683392
640.694521	-146.927167
640.831474	-146.193188
640.968487	-145.386759
641.105558	-144.604655
641.242687	-144.038656
641.379876	-143.842441
641.517123	-144.089297
641.654429	-144.770404
641.791793	-145.768517
641.929216	-146.790114
642.066699	-147.361450
642.204240	-147.128845
642.341840	-146.203849
642.479499	-144.958240
642.617217	-143.705133
642.754994	-142.647361
642.892830	-141.912110
643.030726	-141.574827
643.168680	-141.673230
643.306694	-142.212526
643.444767	-143.155987
643.582899	-144.391203
643.721091	-145.660960
643.859342	-146.491174
643.997652	-146.340905
644.136022	-145.132303
644.274451	-143.360232
644.412940	-141.546722
644.551488	-139.976145
644.690096	-138.756768
644.828763	-137.908393
644.967490	-137.409170
645.106277	-137.217462
645.245124	-137.284698
645.384030	-137.565933
645.522997	-138.025772
645.662023	-138.630104
645.801109	-139.314989
645.940255	-139.943112
646.079460	-140.308957
646.218726	-140.275774
646.358052	-139.932518
646.497438	-139.522973
646.636884	-139.256914
646.776391	-139.230358
646.915957	-139.435060
647.055584	-139.782233
647.195271	-140.129772
647.335019	-140.329859
647.474826	-140.286172
647.614695	-139.976754
647.754623	-139.436848
647.894612	-138.741686
648.034662	-137.995538
648.174772	-137.308301
648.314943	-136.767487
648.455174	-136.423242
648.595466	-136.287562
648.735819	-136.339579
648.876233	-136.531589
649.016707	-136.794879
649.157242	-137.045937
649.297838	-137.193689
649.438495	-137.151695
649.579213	-136.863075
649.719992	-136.333640
649.860832	-135.644231
650.001733	-134.923715
650.142695	-134.306854
650.283718	-133.908902
650.424803	-133.821976
650.565949	-134.122458
650.707156	-134.879950
650.848424	-136.160509
650.989754	-138.007471
651.131145	-140.339709
651.272597	-142.641158
651.414111	-143.866955
651.555687	-143.961035
651.697324	-144.124848
651.839022	-145.184906
651.980782	-147.298039
652.122604	-148.466246
652.264488	-145.496636
652.406433	-141.806963
652.548441	-139.052710
652.690510	-137.150181
652.832640	-135.907793
652.974833	-135.193224
653.117088	-134.911208
653.259405	-134.966376
653.401784	-135.222671
653.544224	-135.477853
653.686727	-135.514471
653.829293	-135.251360
653.971920	-134.823127
654.114609	-134.461400
654.257361	-134.357552
654.400175	-134.634154
654.543052	-135.373893
654.685991	-136.649390
654.828992	-138.527629
654.972056	-140.978121
655.115183	-143.403865
655.258372	-144.105908
655.401623	-142.921021
655.544937	-141.626180
655.688314	-140.995211
655.831754	-141.141543
655.975256	-142.052185
656.118822	-143.658090
656.262450	-145.577528
656.406141	-146.405942
656.549894	-144.844033
656.693711	-142.200618
656.837591	-139.678836
656.981534	-137.556763
657.125540	-135.864172
657.269610	-134.596705
657.413742	-133.743559
657.557938	-133.284405
657.702196	-133.179673
657.846519	-133.351175
657.990904	-133.653116
658.135353	-133.864317
658.279866	-133.776018
658.424441	-133.359738
658.569081	-132.796074
658.713784	-132.318573
658.858550	-132.097195
659.003381	-132.231434
659.148274	-132.781709
659.293232	-133.796879
659.438253	-135.333284
659.583339	-137.469277
659.728488	-140.314967
659.873701	-143.992521
660.018978	-148.422837
660.164318	-152.328597
660.309723	-153.297084
660.455192	-151.867282
660.600725	-149.086129
660.746323	-146.000768
660.891984	-143.445019
661.037710	-141.640575
661.183500	-140.551157
661.329354	-140.070963
661.475272	-140.059548
661.621255	-140.335323
661.767303	-140.687403
661.913415	-140.938312
662.059591	-141.008470
662.205833	-140.886374
662.352138	-140.547692
662.498509	-139.957303
662.644944	-139.143666
662.791443	-138.211249
662.938008	-137.269712
663.084638	-136.379116
663.231332	-135.550883
663.378091	-134.776109
663.524915	-134.053609
663.671804	-133.406396
663.818759	-132.884895
663.965778	-132.561057
664.112863	-132.520445
664.260012	-132.858694
664.407227	-133.686722
664.554507	-135.149885
664.701853	-137.475996
664.849264	-141.108280
664.996740	-147.163811
665.144282	-155.713207
665.291889	-149.457414
665.439561	-145.908340
665.587300	-144.491638
665.735103	-143.504653
665.882973	-141.916716
666.030908	-139.878762
666.178909	-138.046807
666.326976	-136.750421
666.475109	-136.047986
666.623307	-135.876711
666.771571	-136.063792
666.919902	-136.269498
667.068298	-136.072293
667.216761	-135.365813
667.365289	-134.497664
667.513884	-133.875716
667.662545	-133.740958
667.811272	-134.212926
667.960065	-135.369368
668.108925	-137.301622
668.257851	-140.191385
668.406843	-144.583847
668.555902	-153.012959
668.705027	-154.077089
668.854219	-144.680745
669.003478	-139.993775
669.152803	-137.040749
669.302195	-135.167169
669.451653	-134.136160
669.601179	-133.820698
669.750771	-134.106497
669.900430	-134.823940
670.050156	-135.693201
670.199949	-136.378452
670.349808	-136.715346
670.499735	-136.789900
670.649729	-136.682869
670.799790	-136.335112
670.949918	-135.744722
671.100114	-135.128054
671.250377	-134.782875
671.400707	-134.920152
671.551104	-135.626455
671.701569	-136.851042
671.852101	-138.331313
672.002700	-139.573000
672.153368	-140.272156
672.304102	-140.754622
672.454905	-141.505454
672.605775	-142.599759
672.756713	-143.429658
672.907718	-142.954740
673.058791	-141.129886
673.209933	-138.784844
673.361142	-136.470405
673.512419	-134.453012
673.663764	-132.883484
673.815177	-131.847313
673.966658	-131.392348
674.118207	-131.551530
674.269825	-132.355528
674.421510	-133.823248
674.573264	-135.869009
674.725086	-137.922666
674.876977	-138.562599
675.028936	-137.486376
675.180963	-136.119248
675.333059	-135.242468
675.485224	-134.991874
675.637457	-135.274826
675.789758	-135.744817
675.942129	-135.663168
676.094568	-134.497284
676.247075	-132.738693
676.399652	-131.099186
676.552298	-129.884304
676.705012	-129.140311
676.857795	-128.807463
677.010648	-128.765608
677.163569	-128.850344
677.316560	-128.902581
677.469619	-128.857371
677.622748	-128.783402
677.775946	-128.817350
677.929214	-129.074975
678.082551	-129.612715
678.235957	-130.428185
678.389432	-131.471497
678.542977	-132.660330
678.696592	-133.905995
678.850276	-135.156739
679.004030	-136.447980
679.157853	-137.935237
679.311746	-139.906127
679.465709	-142.796709
679.619742	-146.854290
679.773844	-147.657623
679.928017	-143.111594
680.082259	-139.344740
680.236571	-136.657790
680.390954	-134.635209
680.545406	-133.007468
680.699929	-131.596318
680.854522	-130.273988
681.009185	-128.968243
681.163918	-127.682266
681.318722	-126.485203
681.473596	-125.470402
681.628540	-124.716443
681.783555	-124.270520
681.938641	-124.146559
682.093797	-124.324768
682.249023	-124.746392
682.404321	-125.309559
682.559689	-125.888978
682.715128	-126.401237
682.870637	-126.878028
683.026218	-127.461974
683.181869	-128.324090
683.337591	-129.568189
683.493385	-131.094374
683.649249	-132.343248
683.805185	-132.465316
683.961191	-131.586984
684.117269	-130.621195
684.273418	-130.090930
684.429639	-130.108410
684.585930	-130.566977
684.742294	-131.128433
684.898728	-131.242540
685.055234	-130.628031
685.211812	-129.642520
685.368461	-128.775299
685.525182	-128.271096
685.681975	-128.186484
685.838839	-128.492109
685.995775	-129.119065
686.152783	-129.965800
686.309863	-130.855310
686.467014	-131.415407
686.624238	-131.091333
686.781534	-129.749020
686.938902	-127.966581
687.096342	-126.337512
687.253854	-125.151644
687.411438	-124.525284
687.569095	-124.527711
687.726824	-125.250018
687.884626	-126.870459
688.042499	-129.805303
688.200446	-135.357028
688.358465	-154.695765
688.516556	-137.321043
688.674720	-131.775002
688.832957	-129.095658
688.991266	-127.440691
689.149649	-126.023451
689.308104	-124.470591
689.466632	-122.817695
689.625233	-121.294250
689.783906	-120.085031
689.942653	-119.280391
690.101473	-118.913288
690.260367	-118.992459
690.419333	-119.515311
690.578372	-120.461857
690.737485	-121.766356
690.896672	-123.264754
691.055931	-124.669925
691.215264	-125.735335
691.374671	-126.562614
691.534151	-127.586605
691.693704	-129.336556
691.853332	-132.519062
692.013033	-138.780867
692.172807	-141.321789
692.332656	-133.349860
692.492578	-129.086188
692.652575	-126.540029
692.812645	-124.929265
692.972789	-123.892489
693.133007	-123.190107
693.293300	-122.624372
693.453666	-122.047759
693.614107	-121.403670
693.774622	-120.730141
693.935211	-120.108475
694.095875	-119.609071
694.256613	-119.271201
694.417426	-119.107872
694.578313	-119.116126
694.739274	-119.282573
694.900311	-119.584280
695.061421	-119.991880
695.222607	-120.482934
695.383868	-121.066083
695.545203	-121.803943
695.706613	-122.821788
695.868098	-124.309749
696.029658	-126.553783
696.191293	-130.078528
696.353003	-136.271115
696.514789	-145.711425
696.676649	-136.865509
696.838585	-132.928890
697.000596	-131.425664
697.162682	-131.055725
697.324844	-130.934429
697.487081	-130.282719
697.649394	-129.047739
697.811782	-127.767380
697.974246	-126.821254
698.136786	-126.317870
698.299401	-126.241680
698.462092	-126.520726
698.624859	-127.001821
698.787702	-127.388995
698.950621	-127.328665
699.113616	-126.761012
699.276686	-126.013319
699.439833	-125.426968
699.603056	-125.119647
699.766355	-124.977074
699.929731	-124.733158
700.093183	-124.190618
700.256711	-123.441432
700.420315	-122.762062
700.583996	-122.372734
700.747754	-122.347932
700.911588	-122.612114
701.075499	-122.938422
701.239486	-123.022045
701.403550	-122.706170
701.567691	-122.103856
701.731909	-121.407933
701.896203	-120.716883
702.060575	-120.061686
702.225024	-119.496906
702.389549	-119.129534
702.554152	-119.080006
702.718832	-119.430918
702.883589	-120.181102
703.048424	-121.180031
703.213335	-122.073883
703.378324	-122.489425
703.543391	-122.457205
703.708535	-122.344669
703.873757	-122.392413
704.039056	-122.534128
704.204433	-122.489588
704.369887	-122.069156
704.535420	-121.429675
704.701030	-120.904363
704.866718	-120.743330
705.032484	-121.065335
705.198328	-121.883440
705.364250	-123.072388
705.530250	-124.254791
705.696328	-124.835025
705.862485	-124.564618
706.028720	-123.797577
706.195033	-122.895781
706.361424	-122.004870
706.527894	-121.236979
706.694442	-120.768667
706.861069	-120.811477
707.027775	-121.590506
707.194559	-123.393175
707.361422	-126.674371
707.528363	-131.357619
707.695384	-130.397920
707.862483	-126.134094
708.029661	-123.597372
708.196918	-122.463104
708.364254	-122.378657
708.531670	-123.131376
708.699164	-124.399742
708.866738	-125.300218
709.034391	-124.677775
709.202123	-122.973107
709.369935	-121.340346
709.537826	-120.262404
709.705796	-119.858002
709.873847	-120.185115
710.041976	-121.330439
710.210186	-123.364636
710.378475	-125.737434
710.546844	-125.699048
710.715292	-122.957960
710.883821	-120.383567
711.052429	-118.658607
711.221118	-117.693320
711.389887	-117.330028
711.558735	-117.389631
711.727664	-117.620966
711.896673	-117.698325
712.065763	-117.397285
712.234932	-116.810301
712.404183	-116.242530
712.573513	-115.964483
712.742924	-116.129879
712.912416	-116.784621
713.081988	-117.821780
713.251641	-118.822412
713.421375	-119.080606
713.591190	-118.425218
713.761085	-117.504013
713.931061	-116.879874
714.101119	-116.750563
714.271257	-117.113412
714.441476	-117.854613
714.611777	-118.755231
714.782159	-119.516125
714.952622	-119.902050
715.123166	-119.902143
715.293792	-119.667944
715.464499	-119.344547
715.635288	-119.012000
715.806158	-118.696578
715.977110	-118.371024
716.148143	-117.952424
716.319259	-117.346883
716.490456	-116.540320
716.661735	-115.637439
716.833096	-114.794928
717.004538	-114.136555
717.176063	-113.721105
717.347670	-113.548430
717.519359	-113.576610
717.691130	-113.743735
717.862984	-113.994605
718.034920	-114.302777
718.206938	-114.671707
718.379039	-115.112303
718.551222	-115.612186
718.723488	-116.112633
718.895836	-116.505234
719.068267	-116.668506
719.240781	-116.551091
719.413377	-116.234621
719.586057	-115.896772
719.758819	-115.721940
719.931664	-115.849552
720.104593	-116.366452
720.277604	-117.302764
720.450699	-118.585822
720.623876	-119.907406
720.797137	-120.639835
720.970482	-120.375393
721.143910	-119.526037
721.317421	-118.674881
721.491016	-118.043809
721.664694	-117.563484
721.838456	-117.019009
722.012302	-116.224678
722.186231	-115.202075
722.360244	-114.158865
722.534342	-113.319458
722.708523	-112.834196
722.882788	-112.785172
