# 2022-03-21_21.50.33
# shape = sech2
# FWHM_ps = 0.1
# carrier_nm = 1542
# frep_MHz = 12126
# pow_mW = 8000
# GDD = 0.0
# propa_len = 0.10488888888888889
# untap_len = 0.01
# taper_len = 0.04488888888888889
# waist_len = 0.02
# uptap_len = 0.02
# untap_scale = 1.0
# waist_scale = 0.2578947368421053
# workingDir = NL_20110305_12 (Spirou)
# axis = slow
# window_ps = 10.0
# steps = 200
# points = 21700
# 
# wavelength [nm]	 power spectral density [dB]
600.043425	-78.101750
600.163550	-78.140417
600.283723	-78.193753
600.403943	-78.257545
600.524212	-78.327121
600.644529	-78.397443
600.764895	-78.463862
600.885308	-78.521954
601.005770	-78.568765
601.126280	-78.603622
601.246839	-78.629314
601.367446	-78.649992
601.488101	-78.670414
601.608804	-78.696379
601.729557	-78.734372
601.850357	-78.789976
601.971206	-78.865812
602.092104	-78.961910
602.213050	-79.075654
602.334045	-79.203318
602.455089	-79.340183
602.576181	-79.480730
602.697322	-79.619176
602.818511	-79.751760
602.939749	-79.877367
603.061036	-79.996312
603.182372	-80.109905
603.303757	-80.221727
603.425191	-80.337012
603.546673	-80.461186
603.668204	-80.598077
603.789785	-80.749776
603.911414	-80.916503
604.033092	-81.097193
604.154820	-81.288304
604.276596	-81.483807
604.398422	-81.676616
604.520297	-81.860292
604.642220	-82.029733
604.764193	-82.183094
604.886216	-82.321494
605.008287	-82.449455
605.130408	-82.571845
605.252578	-82.695076
605.374798	-82.826764
605.497066	-82.975809
605.619385	-83.148100
605.741752	-83.347488
605.864169	-83.573948
605.986636	-83.826011
606.109152	-84.099897
606.231718	-84.390730
606.354333	-84.693614
606.476998	-85.001860
606.599712	-85.310271
606.722476	-85.617570
606.845290	-85.926231
606.968154	-86.242282
607.091067	-86.574256
607.214030	-86.932175
607.337043	-87.325632
607.460106	-87.762404
607.583219	-88.247448
607.706381	-88.780674
607.829594	-89.355867
607.952856	-89.957731
608.076169	-90.564827
608.199531	-91.147165
608.322944	-91.667551
608.446407	-92.088627
608.569920	-92.384513
608.693483	-92.548629
608.817096	-92.589724
608.940759	-92.533743
609.064473	-92.413027
609.188237	-92.245583
609.312051	-92.035030
609.435916	-91.778510
609.559831	-91.468687
609.683796	-91.096521
609.807812	-90.659074
609.931878	-90.164614
610.055995	-89.628013
610.180162	-89.066936
610.304380	-88.499096
610.428648	-87.941768
610.552967	-87.410236
610.677337	-86.913922
610.801757	-86.452034
610.926228	-86.021856
611.050750	-85.622805
611.175323	-85.253340
611.299946	-84.908267
611.424620	-84.582036
611.549345	-84.270751
611.674121	-83.972139
611.798948	-83.682810
611.923826	-83.400186
612.048755	-83.123296
612.173734	-82.853850
612.298765	-82.596889
612.423847	-82.356231
612.548980	-82.132009
612.674165	-81.922283
612.799400	-81.724775
612.924687	-81.537705
613.050025	-81.357550
613.175414	-81.180661
613.300854	-81.003174
613.426346	-80.821298
613.551889	-80.631562
613.677484	-80.431669
613.803130	-80.220679
613.928827	-80.000277
614.054576	-79.774229
614.180377	-79.546512
614.306229	-79.321197
614.432132	-79.102119
614.558087	-78.893643
614.684094	-78.698834
614.810153	-78.519217
614.936263	-78.355632
615.062425	-78.208431
615.188639	-78.076798
615.314904	-77.957741
615.441222	-77.847752
615.567591	-77.743210
615.694012	-77.640318
615.820486	-77.535745
615.947011	-77.427694
616.073588	-77.316580
616.200217	-77.202889
616.326898	-77.086527
616.453632	-76.968563
616.580417	-76.851863
616.707255	-76.739178
616.834144	-76.631397
616.961086	-76.529812
617.088081	-76.436670
617.215127	-76.352933
617.342226	-76.277565
617.469378	-76.208714
617.596581	-76.145160
617.723837	-76.085141
617.851146	-76.026073
617.978507	-75.965220
618.105920	-75.900602
618.233386	-75.831169
618.360905	-75.756448
618.488476	-75.676627
618.616100	-75.594041
618.743777	-75.511906
618.871506	-75.432158
618.999288	-75.356458
619.127123	-75.287809
619.255011	-75.229283
619.382951	-75.181161
619.510945	-75.141147
619.638991	-75.107937
619.767090	-75.081370
619.895243	-75.059792
620.023448	-75.039459
620.151706	-75.016156
620.280017	-74.987196
620.408382	-74.950612
620.536799	-74.903975
620.665270	-74.845755
620.793794	-74.777166
620.922371	-74.700204
621.051002	-74.617267
621.179686	-74.532475
621.308423	-74.450615
621.437213	-74.375455
621.566057	-74.309511
621.694954	-74.256059
621.823905	-74.217743
621.952909	-74.195646
622.081967	-74.188769
622.211079	-74.196118
622.340244	-74.216807
622.469462	-74.248767
622.598735	-74.287605
622.728061	-74.328566
622.857441	-74.368308
622.986874	-74.402970
623.116361	-74.427627
623.245903	-74.438772
623.375498	-74.436862
623.505147	-74.423911
623.634850	-74.400506
623.764606	-74.368258
623.894417	-74.332837
624.024282	-74.300063
624.154201	-74.272798
624.284174	-74.253636
624.414202	-74.247561
624.544283	-74.258923
624.674419	-74.288344
624.804609	-74.335104
624.934853	-74.399789
625.065151	-74.482925
625.195504	-74.581389
625.325911	-74.690492
625.456373	-74.806950
625.586889	-74.928064
625.717460	-75.049315
625.848085	-75.163682
625.978764	-75.265653
626.109498	-75.352962
626.240287	-75.424363
626.371131	-75.478679
626.502029	-75.515411
626.632982	-75.537553
626.763989	-75.550770
626.895052	-75.559193
627.026169	-75.566117
627.157341	-75.576378
627.288568	-75.595583
627.419850	-75.627079
627.551187	-75.672452
627.682579	-75.734219
627.814026	-75.814367
627.945528	-75.910526
628.077085	-76.019081
628.208697	-76.139427
628.340364	-76.271351
628.472087	-76.409707
628.603865	-76.546798
628.735698	-76.677178
628.867586	-76.797350
628.999530	-76.901606
629.131529	-76.984999
629.263584	-77.045347
629.395694	-77.082821
629.527859	-77.097056
629.660080	-77.088461
629.792357	-77.060343
629.924689	-77.017828
630.057077	-76.964632
630.189520	-76.905258
630.322019	-76.846185
630.454574	-76.791912
630.587184	-76.744211
630.719851	-76.705012
630.852573	-76.676936
630.985351	-76.661099
631.118185	-76.656426
631.251075	-76.660739
631.384021	-76.671756
631.517023	-76.687541
631.650081	-76.704384
631.783195	-76.716906
631.916365	-76.720737
632.049592	-76.714187
632.182874	-76.694085
632.316213	-76.654630
632.449608	-76.591409
632.583059	-76.504649
632.716567	-76.396547
632.850131	-76.267973
632.983751	-76.120909
633.117428	-75.960697
633.251161	-75.792712
633.384951	-75.620153
633.518797	-75.446195
633.652700	-75.275648
633.786660	-75.113147
633.920676	-74.962046
634.054749	-74.824022
634.188879	-74.699554
634.323065	-74.590086
634.457308	-74.496516
634.591608	-74.417228
634.725965	-74.349287
634.860379	-74.290187
634.994850	-74.238010
635.129377	-74.189676
635.263962	-74.140699
635.398604	-74.086808
635.533303	-74.025619
635.668058	-73.955899
635.802872	-73.875217
635.937742	-73.780592
636.072669	-73.670802
636.207654	-73.547239
636.342696	-73.412139
636.477796	-73.267549
636.612953	-73.115890
636.748167	-72.960665
636.883439	-72.805531
637.018768	-72.653756
637.154155	-72.508660
637.289599	-72.373522
637.425101	-72.250741
637.560660	-72.140940
637.696277	-72.044879
637.831952	-71.963814
637.967685	-71.898176
638.103475	-71.846461
638.239324	-71.807161
638.375230	-71.779426
638.511194	-71.761637
638.647215	-71.751705
638.783295	-71.746845
638.919433	-71.744224
639.055629	-71.742764
639.191883	-71.741990
639.328195	-71.738991
639.464565	-71.730126
639.600994	-71.714671
639.737481	-71.693013
639.874025	-71.663924
640.010629	-71.625884
640.147290	-71.579002
640.284010	-71.524505
640.420789	-71.463378
640.557625	-71.396671
640.694521	-71.326392
640.831474	-71.255102
640.968487	-71.184656
641.105558	-71.115955
641.242687	-71.050152
641.379876	-70.989343
641.517123	-70.935555
641.654429	-70.890447
641.791793	-70.855128
641.929216	-70.831440
642.066699	-70.820758
642.204240	-70.823693
642.341840	-70.840593
642.479499	-70.872197
642.617217	-70.919325
642.754994	-70.981763
642.892830	-71.058510
643.030726	-71.148115
643.168680	-71.249094
643.306694	-71.358845
643.444767	-71.473493
643.582899	-71.589932
643.721091	-71.705630
643.859342	-71.816606
643.997652	-71.918184
644.136022	-72.007404
644.274451	-72.082733
644.412940	-72.142103
644.551488	-72.184211
644.690096	-72.209435
644.828763	-72.218653
644.967490	-72.213426
645.106277	-72.197077
645.245124	-72.173650
645.384030	-72.145991
645.522997	-72.117255
645.662023	-72.090964
645.801109	-72.071163
645.940255	-72.061420
646.079460	-72.064525
646.218726	-72.081972
646.358052	-72.115903
646.497438	-72.168654
646.636884	-72.241695
646.776391	-72.335640
646.915957	-72.451860
647.055584	-72.591573
647.195271	-72.755148
647.335019	-72.941412
647.474826	-73.149798
647.614695	-73.380739
647.754623	-73.633477
647.894612	-73.906020
648.034662	-74.196040
648.174772	-74.501068
648.314943	-74.817702
648.455174	-75.141140
648.595466	-75.463599
648.735819	-75.777710
648.876233	-76.077442
649.016707	-76.355877
649.157242	-76.603969
649.297838	-76.816348
649.438495	-76.992399
649.579213	-77.131048
649.719992	-77.232136
649.860832	-77.300524
650.001733	-77.346213
650.142695	-77.377055
650.283718	-77.398853
650.424803	-77.417339
650.565949	-77.440303
650.707156	-77.475048
650.848424	-77.526325
650.989754	-77.595002
651.131145	-77.681449
651.272597	-77.789552
651.414111	-77.921851
651.555687	-78.077048
651.697324	-78.251768
651.839022	-78.446534
651.980782	-78.662417
652.122604	-78.896308
652.264488	-79.141130
652.406433	-79.391867
652.548441	-79.646185
652.690510	-79.900653
652.832640	-80.149257
652.974833	-80.384946
653.117088	-80.601456
653.259405	-80.794512
653.401784	-80.961486
653.544224	-81.097821
653.686727	-81.201136
653.829293	-81.275054
653.971920	-81.322795
654.114609	-81.344935
654.257361	-81.343820
654.400175	-81.325130
654.543052	-81.290719
654.685991	-81.238765
654.828992	-81.171087
654.972056	-81.088858
655.115183	-80.989791
655.258372	-80.870164
655.401623	-80.725023
655.544937	-80.551479
655.688314	-80.348178
655.831754	-80.114384
655.975256	-79.848980
656.118822	-79.552461
656.262450	-79.229435
656.406141	-78.884571
656.549894	-78.520244
656.693711	-78.139773
656.837591	-77.748188
656.981534	-77.349939
657.125540	-76.947215
657.269610	-76.542799
657.413742	-76.141286
657.557938	-75.745721
657.702196	-75.357447
657.846519	-74.979362
657.990904	-74.613304
658.135353	-74.260259
658.279866	-73.920988
658.424441	-73.597344
658.569081	-73.290502
658.713784	-73.000360
658.858550	-72.725597
659.003381	-72.466334
659.148274	-72.222406
659.293232	-71.992433
659.438253	-71.775551
659.583339	-71.570591
659.728488	-71.376968
659.873701	-71.194120
660.018978	-71.021631
660.164318	-70.858975
660.309723	-70.705956
660.455192	-70.562847
660.600725	-70.430277
660.746323	-70.308245
660.891984	-70.195893
661.037710	-70.092576
661.183500	-69.997510
661.329354	-69.909988
661.475272	-69.828867
661.621255	-69.753451
661.767303	-69.682836
661.913415	-69.615551
662.059591	-69.549554
662.205833	-69.483678
662.352138	-69.418392
662.498509	-69.353659
662.644944	-69.288355
662.791443	-69.221908
662.938008	-69.155315
663.084638	-69.089935
663.231332	-69.025913
663.378091	-68.962506
663.524915	-68.899025
663.671804	-68.836117
663.818759	-68.774309
663.965778	-68.712691
664.112863	-68.649241
664.260012	-68.583315
664.407227	-68.514998
664.554507	-68.443615
664.701853	-68.368061
664.849264	-68.287953
664.996740	-68.203837
665.144282	-68.116749
665.291889	-68.028099
665.439561	-67.938963
665.587300	-67.850544
665.735103	-67.764267
665.882973	-67.681905
666.030908	-67.604384
666.178909	-67.532184
666.326976	-67.465462
666.475109	-67.404350
666.623307	-67.348200
666.771571	-67.295846
666.919902	-67.246461
667.068298	-67.199087
667.216761	-67.152893
667.365289	-67.107069
667.513884	-67.061160
667.662545	-67.015667
667.811272	-66.971450
667.960065	-66.929213
668.108925	-66.889706
668.257851	-66.854180
668.406843	-66.823330
668.555902	-66.797823
668.705027	-66.777525
668.854219	-66.761695
669.003478	-66.749363
669.152803	-66.739282
669.302195	-66.729576
669.451653	-66.718598
669.601179	-66.704799
669.750771	-66.686656
669.900430	-66.663113
670.050156	-66.633995
670.199949	-66.599549
670.349808	-66.560766
670.499735	-66.518930
670.649729	-66.475234
670.799790	-66.431463
670.949918	-66.389359
671.100114	-66.349781
671.250377	-66.313334
671.400707	-66.279918
671.551104	-66.248734
671.701569	-66.218900
671.852101	-66.189331
672.002700	-66.158733
672.153368	-66.125894
672.304102	-66.090114
672.454905	-66.051341
672.605775	-66.009688
672.756713	-65.966003
672.907718	-65.921952
673.058791	-65.879276
673.209933	-65.839633
673.361142	-65.804633
673.512419	-65.775621
673.663764	-65.753354
673.815177	-65.737959
673.966658	-65.729091
674.118207	-65.725385
674.269825	-65.725534
674.421510	-65.727539
674.573264	-65.729840
674.725086	-65.730980
674.876977	-65.730719
675.028936	-65.728624
675.180963	-65.724202
675.333059	-65.717448
675.485224	-65.709959
675.637457	-65.703190
675.789758	-65.697985
675.942129	-65.695544
676.094568	-65.696806
676.247075	-65.701748
676.399652	-65.709372
676.552298	-65.718900
676.705012	-65.729697
676.857795	-65.740250
677.010648	-65.748684
677.163569	-65.753778
677.316560	-65.754515
677.469619	-65.750244
677.622748	-65.741130
677.775946	-65.727727
677.929214	-65.710899
678.082551	-65.691668
678.235957	-65.671196
678.389432	-65.650908
678.542977	-65.631686
678.696592	-65.613702
678.850276	-65.597405
679.004030	-65.582523
679.157853	-65.568730
679.311746	-65.555551
679.465709	-65.542374
679.619742	-65.528244
679.773844	-65.512654
679.928017	-65.495598
680.082259	-65.477020
680.236571	-65.457366
680.390954	-65.437237
680.545406	-65.417708
680.699929	-65.399289
680.854522	-65.382461
681.009185	-65.367930
681.163918	-65.356595
681.318722	-65.348153
681.473596	-65.342220
681.628540	-65.339222
681.783555	-65.338890
681.938641	-65.340476
682.093797	-65.342702
682.249023	-65.345813
682.404321	-65.349825
682.559689	-65.354503
682.715128	-65.359544
682.870637	-65.365085
683.026218	-65.371388
683.181869	-65.378758
683.337591	-65.387026
683.493385	-65.396273
683.649249	-65.406943
683.805185	-65.419389
683.961191	-65.433127
684.117269	-65.447594
684.273418	-65.462735
684.429639	-65.478301
684.585930	-65.493456
684.742294	-65.507179
684.898728	-65.519008
685.055234	-65.528955
685.211812	-65.535937
685.368461	-65.539692
685.525182	-65.540053
685.681975	-65.537825
685.838839	-65.532806
685.995775	-65.525365
686.152783	-65.516194
686.309863	-65.506744
686.467014	-65.497171
686.624238	-65.487151
686.781534	-65.476619
686.938902	-65.465511
687.096342	-65.453678
687.253854	-65.440243
687.411438	-65.424155
687.569095	-65.404606
687.726824	-65.381440
687.884626	-65.354740
688.042499	-65.324923
688.200446	-65.292549
688.358465	-65.258422
688.516556	-65.223921
688.674720	-65.190475
688.832957	-65.158622
688.991266	-65.129289
689.149649	-65.102517
689.308104	-65.077855
689.466632	-65.054794
689.625233	-65.032680
689.783906	-65.010778
689.942653	-64.987864
690.101473	-64.963037
690.260367	-64.936117
690.419333	-64.907398
690.578372	-64.877337
690.737485	-64.846649
690.896672	-64.816163
691.055931	-64.786750
691.215264	-64.760094
691.374671	-64.736807
691.534151	-64.716629
691.693704	-64.699516
691.853332	-64.684854
692.013033	-64.671830
692.172807	-64.658642
692.332656	-64.644141
692.492578	-64.628174
692.652575	-64.610125
692.812645	-64.590076
692.972789	-64.568117
693.133007	-64.545297
693.293300	-64.522984
693.453666	-64.502218
693.614107	-64.483956
693.774622	-64.468600
693.935211	-64.456348
694.095875	-64.447011
694.256613	-64.439005
694.417426	-64.430452
694.578313	-64.419987
694.739274	-64.406501
694.900311	-64.388853
695.061421	-64.366567
695.222607	-64.339846
695.383868	-64.309284
695.545203	-64.275965
695.706613	-64.241637
695.868098	-64.207107
696.029658	-64.173340
696.191293	-64.140609
696.353003	-64.108746
696.514789	-64.076492
696.676649	-64.042939
696.838585	-64.007056
697.000596	-63.967971
697.162682	-63.924903
697.324844	-63.877450
697.487081	-63.825804
697.649394	-63.770901
697.811782	-63.714315
697.974246	-63.657788
698.136786	-63.602062
698.299401	-63.548272
698.462092	-63.496477
698.624859	-63.446871
698.787702	-63.398608
698.950621	-63.350356
699.113616	-63.300504
699.276686	-63.247731
699.439833	-63.191209
699.603056	-63.130578
699.766355	-63.065932
699.929731	-62.997949
700.093183	-62.927640
700.256711	-62.856333
700.420315	-62.785040
700.583996	-62.714454
700.747754	-62.644541
700.911588	-62.575455
701.075499	-62.506151
701.239486	-62.436157
701.403550	-62.364368
701.567691	-62.290790
701.731909	-62.215125
701.896203	-62.137457
702.060575	-62.058087
702.225024	-61.977668
702.389549	-61.897227
702.554152	-61.817936
702.718832	-61.739748
702.883589	-61.662765
703.048424	-61.586839
703.213335	-61.512149
703.378324	-61.437910
703.543391	-61.363346
703.708535	-61.287711
703.873757	-61.210945
704.039056	-61.133119
704.204433	-61.053997
704.369887	-60.973709
704.535420	-60.892823
704.701030	-60.812228
704.866718	-60.732121
705.032484	-60.652662
705.198328	-60.574094
705.364250	-60.496492
705.530250	-60.419888
705.696328	-60.343743
705.862485	-60.267942
706.028720	-60.192431
706.195033	-60.117605
706.361424	-60.043693
706.527894	-59.970981
706.694442	-59.899677
706.861069	-59.830275
707.027775	-59.763202
707.194559	-59.698394
707.361422	-59.636211
707.528363	-59.576392
707.695384	-59.518667
707.862483	-59.462980
708.029661	-59.409448
708.196918	-59.357948
708.364254	-59.308108
708.531670	-59.259677
708.699164	-59.213168
708.866738	-59.168801
709.034391	-59.126957
709.202123	-59.087332
709.369935	-59.050246
709.537826	-59.016234
709.705796	-58.985470
709.873847	-58.958040
710.041976	-58.933693
710.210186	-58.912370
710.378475	-58.893957
710.546844	-58.877965
710.715292	-58.864314
710.883821	-58.853183
711.052429	-58.845001
711.221118	-58.839515
711.389887	-58.837165
711.558735	-58.838325
711.727664	-58.843323
711.896673	-58.852249
712.065763	-58.864861
712.234932	-58.881233
712.404183	-58.901138
712.573513	-58.924115
712.742924	-58.949774
712.912416	-58.978060
713.081988	-59.009136
713.251641	-59.042892
713.421375	-59.079380
713.591190	-59.118913
713.761085	-59.161982
713.931061	-59.209050
714.101119	-59.259980
714.271257	-59.315001
714.441476	-59.374116
714.611777	-59.436872
714.782159	-59.502799
714.952622	-59.571409
715.123166	-59.642528
715.293792	-59.715622
715.464499	-59.790773
715.635288	-59.868089
715.806158	-59.947659
715.977110	-60.029530
716.148143	-60.113387
716.319259	-60.198939
716.490456	-60.286219
716.661735	-60.375084
716.833096	-60.464856
717.004538	-60.554796
717.176063	-60.644807
717.347670	-60.734538
717.519359	-60.822900
717.691130	-60.909227
717.862984	-60.993005
718.034920	-61.073800
718.206938	-61.151176
718.379039	-61.224546
718.551222	-61.293794
718.723488	-61.358403
718.895836	-61.417647
719.068267	-61.469929
719.240781	-61.513847
719.413377	-61.548381
719.586057	-61.571976
719.758819	-61.583357
719.931664	-61.582350
720.104593	-61.569235
720.277604	-61.544226
720.450699	-61.507444
720.623876	-61.459423
720.797137	-61.400639
720.970482	-61.331372
721.143910	-61.251877
721.317421	-61.162549
721.491016	-61.063263
721.664694	-60.953873
721.838456	-60.835074
722.012302	-60.707511
722.186231	-60.572094
722.360244	-60.429672
722.534342	-60.281626
722.708523	-60.129177
722.882788	-59.973643
723.057137	-59.815931
723.231570	-59.656272
723.406088	-59.495126
723.580689	-59.333225
723.755375	-59.170922
723.930146	-59.008623
724.105000	-58.846979
724.279940	-58.687252
724.454963	-58.530155
724.630072	-58.376892
724.805265	-58.228366
724.980543	-58.085456
725.155905	-57.948623
725.331353	-57.817709
725.506885	-57.692804
725.682503	-57.573388
725.858205	-57.459704
726.033993	-57.351528
726.209865	-57.249337
726.385823	-57.153401
726.561866	-57.064461
726.737995	-56.982912
726.914209	-56.908963
727.090508	-56.842639
727.266893	-56.783878
727.443364	-56.732488
727.619920	-56.688378
727.796562	-56.651845
727.973290	-56.623269
728.150103	-56.603181
728.327003	-56.592303
728.503988	-56.591433
728.681060	-56.601283
728.858218	-56.621919
729.035461	-56.653430
729.212791	-56.695895
729.390208	-56.749058
729.567710	-56.812476
