# 2022-03-21_22.24.40
# shape = sech2
# FWHM_ps = 0.1
# carrier_nm = 1542
# frep_MHz = 12126
# pow_mW = 8000
# GDD = 0.0
# propa_len = 0.11177777777777778
# untap_len = 0.01
# taper_len = 0.05177777777777778
# waist_len = 0.02
# uptap_len = 0.02
# untap_scale = 1.0
# waist_scale = 0.3052631578947369
# workingDir = NL_20110305_12 (Spirou)
# axis = slow
# window_ps = 10.0
# steps = 200
# points = 21700
# 
# wavelength [nm]	 power spectral density [dB]
600.043425	-89.260796
600.163550	-89.133972
600.283723	-89.077188
600.403943	-89.090073
600.524212	-89.171574
600.644529	-89.318157
600.764895	-89.523744
600.885308	-89.779775
601.005770	-90.075117
601.126280	-90.396136
601.246839	-90.726853
601.367446	-91.049072
601.488101	-91.342669
601.608804	-91.586182
601.729557	-91.758010
601.850357	-91.838714
601.971206	-91.814496
602.092104	-91.680910
602.213050	-91.445228
602.334045	-91.125993
602.455089	-90.749463
602.576181	-90.344732
602.697322	-89.939320
602.818511	-89.556357
602.939749	-89.213515
603.061036	-88.922993
603.182372	-88.692153
603.303757	-88.524401
603.425191	-88.420080
603.546673	-88.377297
603.668204	-88.392646
603.789785	-88.461874
603.911414	-88.580379
604.033092	-88.743444
604.154820	-88.946375
604.276596	-89.184175
604.398422	-89.450641
604.520297	-89.737043
604.642220	-90.030758
604.764193	-90.314032
604.886216	-90.563751
605.008287	-90.753458
605.130408	-90.858206
605.252578	-90.861376
605.374798	-90.760580
605.497066	-90.569218
605.619385	-90.312661
605.741752	-90.021374
605.864169	-89.724416
605.986636	-89.445397
606.109152	-89.201110
606.231718	-89.001985
606.354333	-88.853264
606.476998	-88.756358
606.599712	-88.710242
606.722476	-88.712772
606.845290	-88.761551
606.968154	-88.854586
607.091067	-88.990695
607.214030	-89.169546
607.337043	-89.391193
607.460106	-89.655352
607.583219	-89.960321
607.706381	-90.301556
607.829594	-90.670255
607.952856	-91.052154
608.076169	-91.426951
608.199531	-91.769174
608.322944	-92.051443
608.446407	-92.249944
608.569920	-92.350493
608.693483	-92.352500
608.817096	-92.268540
608.940759	-92.119814
609.064473	-91.930087
609.188237	-91.720833
609.312051	-91.508832
609.435916	-91.305916
609.559831	-91.119974
609.683796	-90.956341
609.807812	-90.819053
609.931878	-90.711669
610.055995	-90.637678
610.180162	-90.600512
610.304380	-90.603172
610.428648	-90.647778
610.552967	-90.734947
610.677337	-90.863032
610.801757	-91.027831
610.926228	-91.222314
611.050750	-91.436555
611.175323	-91.658244
611.299946	-91.873669
611.424620	-92.069279
611.549345	-92.233567
611.674121	-92.358708
611.798948	-92.441465
611.923826	-92.483118
612.048755	-92.488356
612.173734	-92.463695
612.298765	-92.415765
612.423847	-92.350287
612.548980	-92.271291
612.674165	-92.180925
612.799400	-92.079811
612.924687	-91.967276
613.050025	-91.841835
613.175414	-91.701655
613.300854	-91.545089
613.426346	-91.371104
613.551889	-91.179703
613.677484	-90.972678
613.803130	-90.753617
613.928827	-90.527858
614.054576	-90.302332
614.180377	-90.084964
614.306229	-89.883964
614.432132	-89.707218
614.558087	-89.561645
614.684094	-89.452726
614.810153	-89.384343
614.936263	-89.358506
615.062425	-89.375253
615.188639	-89.432730
615.314904	-89.527181
615.441222	-89.653022
615.567591	-89.803120
615.694012	-89.968990
615.820486	-90.141112
615.947011	-90.309474
616.073588	-90.464070
616.200217	-90.595698
616.326898	-90.696827
616.453632	-90.762326
616.580417	-90.790308
616.707255	-90.782618
616.834144	-90.744941
616.961086	-90.686406
617.088081	-90.618939
617.215127	-90.556241
617.342226	-90.512571
617.469378	-90.501990
617.596581	-90.537730
617.723837	-90.631592
617.851146	-90.793858
617.978507	-91.033332
618.105920	-91.357283
618.233386	-91.771435
618.360905	-92.280119
618.488476	-92.885760
618.616100	-93.588155
618.743777	-94.383431
618.871506	-95.261218
618.999288	-96.199444
619.127123	-97.155435
619.255011	-98.053915
619.382951	-98.778590
619.510945	-99.187740
619.638991	-99.176394
619.767090	-98.748196
619.895243	-98.013423
620.023448	-97.116312
620.151706	-96.174606
620.280017	-95.264110
620.408382	-94.427900
620.536799	-93.688852
620.665270	-93.058141
620.793794	-92.540761
620.922371	-92.138051
621.051002	-91.848872
621.179686	-91.670495
621.308423	-91.598688
621.437213	-91.627098
621.566057	-91.746787
621.694954	-91.945773
621.823905	-92.207978
621.952909	-92.512298
622.081967	-92.832327
622.211079	-93.137157
622.340244	-93.393803
622.469462	-93.571749
622.598735	-93.648179
622.728061	-93.611876
622.857441	-93.464350
622.986874	-93.217714
623.116361	-92.890725
623.245903	-92.505242
623.375498	-92.083661
623.505147	-91.647691
623.634850	-91.218050
623.764606	-90.814192
623.894417	-90.454060
624.024282	-90.154140
624.154201	-89.929512
624.284174	-89.793961
624.414202	-89.760425
624.544283	-89.841457
624.674419	-90.049839
624.804609	-90.399098
624.934853	-90.904097
625.065151	-91.581444
625.195504	-92.449012
625.325911	-93.522551
625.456373	-94.804594
625.586889	-96.252113
625.717460	-97.697318
625.848085	-98.739450
625.978764	-98.878860
626.109498	-98.081011
626.240287	-96.821336
626.371131	-95.515784
626.502029	-94.341354
626.632982	-93.337906
626.763989	-92.493323
626.895052	-91.779552
627.026169	-91.165615
627.157341	-90.623050
627.288568	-90.128976
627.419850	-89.667792
627.551187	-89.232361
627.682579	-88.823580
627.814026	-88.449002
627.945528	-88.120957
628.077085	-87.854123
628.208697	-87.663980
628.340364	-87.566007
628.472087	-87.575292
628.603865	-87.706808
628.735698	-87.976018
628.867586	-88.399728
628.999530	-88.997011
629.131529	-89.789540
629.263584	-90.801046
629.395694	-92.051998
629.527859	-93.538588
629.660080	-95.168041
629.792357	-96.607914
629.924689	-97.210278
630.057077	-96.609463
630.189520	-95.282742
630.322019	-93.841581
630.454574	-92.563966
630.587184	-91.516948
630.719851	-90.692657
630.852573	-90.062537
630.985351	-89.593786
631.118185	-89.253267
631.251075	-89.008397
631.384021	-88.827734
631.517023	-88.682397
631.650081	-88.548915
631.783195	-88.412114
631.916365	-88.267478
632.049592	-88.121351
632.182874	-87.988833
632.316213	-87.890475
632.449608	-87.848724
632.583059	-87.885668
632.716567	-88.021551
632.850131	-88.274473
632.983751	-88.660385
633.117428	-89.192835
633.251161	-89.881488
633.384951	-90.727711
633.518797	-91.714324
633.652700	-92.784257
633.786660	-93.807465
633.920676	-94.563707
634.054749	-94.824857
634.188879	-94.543065
634.323065	-93.902755
634.457308	-93.150761
634.591608	-92.459695
634.725965	-91.918141
634.860379	-91.564367
634.994850	-91.413434
635.129377	-91.471910
635.263962	-91.745020
635.398604	-92.239825
635.533303	-92.965878
635.668058	-93.934469
635.802872	-95.153208
635.937742	-96.609251
636.072669	-98.227129
636.207654	-99.782556
636.342696	-100.851412
636.477796	-101.086977
636.612953	-100.664552
636.748167	-100.066120
636.883439	-99.643727
637.018768	-99.575624
637.154155	-99.973246
637.289599	-100.970223
637.425101	-102.822738
637.560660	-106.169213
637.696277	-113.242188
637.831952	-114.474440
637.967685	-105.303275
638.103475	-100.500707
638.239324	-97.314154
638.375230	-94.976837
638.511194	-93.182711
638.647215	-91.779814
638.783295	-90.682200
638.919433	-89.837310
639.055629	-89.211957
639.191883	-88.785004
639.328195	-88.543852
639.464565	-88.482559
639.600994	-88.601290
639.737481	-88.906294
639.874025	-89.411036
640.010629	-90.138515
640.147290	-91.125521
640.284010	-92.430522
640.420789	-94.148550
640.557625	-96.437285
640.694521	-99.535744
640.831474	-103.383329
640.968487	-104.559012
641.105558	-101.088790
641.242687	-97.724014
641.379876	-95.247391
641.517123	-93.421876
641.654429	-92.056566
641.791793	-91.034795
641.929216	-90.284520
642.066699	-89.759632
642.204240	-89.429023
642.341840	-89.270908
642.479499	-89.268740
642.617217	-89.407869
642.754994	-89.672040
642.892830	-90.038772
643.030726	-90.472981
643.168680	-90.919278
643.306694	-91.297417
643.444767	-91.509988
643.582899	-91.472505
643.721091	-91.156336
643.859342	-90.604852
643.997652	-89.906119
644.136022	-89.150675
644.274451	-88.407552
644.412940	-87.720513
644.551488	-87.114171
644.690096	-86.601170
644.828763	-86.187366
644.967490	-85.875135
645.106277	-85.665583
645.245124	-85.559689
645.384030	-85.558952
645.522997	-85.665974
645.662023	-85.885043
645.801109	-86.222385
645.940255	-86.686888
646.079460	-87.290887
646.218726	-88.051311
646.358052	-88.991186
646.497438	-90.141791
646.636884	-91.543642
646.776391	-93.242285
646.915957	-95.257314
647.055584	-97.437346
647.195271	-99.040961
647.335019	-98.840469
647.474826	-97.124913
647.614695	-95.130946
647.754623	-93.382094
647.894612	-91.953609
648.034662	-90.812124
648.174772	-89.912727
648.314943	-89.217729
648.455174	-88.698778
648.595466	-88.334765
648.735819	-88.110336
648.876233	-88.014153
649.016707	-88.038315
649.157242	-88.177071
649.297838	-88.426487
649.438495	-88.783974
649.579213	-89.247597
649.719992	-89.815604
649.860832	-90.485542
650.001733	-91.252549
650.142695	-92.106891
650.283718	-93.030642
650.424803	-93.992332
650.565949	-94.941179
650.707156	-95.806325
650.848424	-96.507735
650.989754	-96.984153
651.131145	-97.225280
651.272597	-97.278954
651.414111	-97.226869
651.555687	-97.152440
651.697324	-97.122583
651.839022	-97.184946
651.980782	-97.372757
652.122604	-97.712009
652.264488	-98.227325
652.406433	-98.946796
652.548441	-99.907839
652.690510	-101.165506
652.832640	-102.804445
652.974833	-104.953405
653.117088	-107.765137
653.259405	-110.967267
653.401784	-111.788048
653.544224	-108.876695
653.686727	-105.707142
653.829293	-103.201905
653.971920	-101.251262
654.114609	-99.704230
654.257361	-98.456500
654.400175	-97.439506
654.543052	-96.606873
654.685991	-95.926077
654.828992	-95.373338
654.972056	-94.930298
655.115183	-94.581111
655.258372	-94.311638
655.401623	-94.107309
655.544937	-93.951861
655.688314	-93.826341
655.831754	-93.707694
655.975256	-93.568285
656.118822	-93.378845
656.262450	-93.111135
656.406141	-92.743782
656.549894	-92.267515
656.693711	-91.687120
656.837591	-91.019738
656.981534	-90.290147
657.125540	-89.524642
657.269610	-88.747689
657.413742	-87.979101
657.557938	-87.234092
657.702196	-86.523719
657.846519	-85.855842
657.990904	-85.235858
658.135353	-84.667691
658.279866	-84.154082
658.424441	-83.697168
658.569081	-83.298693
658.713784	-82.960269
658.858550	-82.683562
659.003381	-82.470202
659.148274	-82.322021
659.293232	-82.241101
659.438253	-82.229701
659.583339	-82.290147
659.728488	-82.424875
659.873701	-82.635884
660.018978	-82.924434
660.164318	-83.289903
660.309723	-83.727929
660.455192	-84.227497
660.600725	-84.765971
660.746323	-85.302141
660.891984	-85.770034
661.037710	-86.080843
661.183500	-86.144354
661.329354	-85.909769
661.475272	-85.396058
661.621255	-84.680839
661.767303	-83.858798
661.913415	-83.009510
662.059591	-82.187037
662.205833	-81.423666
662.352138	-80.736868
662.498509	-80.135379
662.644944	-79.623117
662.791443	-79.201601
662.938008	-78.871550
663.084638	-78.633477
663.231332	-78.488329
663.378091	-78.437797
663.524915	-78.484546
663.671804	-78.632470
663.818759	-78.886769
663.965778	-79.254085
664.112863	-79.742234
664.260012	-80.359633
664.407227	-81.113079
664.554507	-82.002258
664.701853	-83.006604
664.849264	-84.056592
664.996740	-84.987183
665.144282	-85.517084
665.291889	-85.382371
665.439561	-84.592247
665.587300	-83.418777
665.735103	-82.138885
665.882973	-80.911454
666.030908	-79.802463
666.178909	-78.831213
666.326976	-77.997634
666.475109	-77.295098
666.623307	-76.715635
666.771571	-76.251922
666.919902	-75.898077
667.068298	-75.649883
667.216761	-75.504860
667.365289	-75.462179
667.513884	-75.522797
667.662545	-75.689601
667.811272	-75.967649
667.960065	-76.364709
668.108925	-76.891885
668.257851	-77.564842
668.406843	-78.405533
668.555902	-79.445117
668.705027	-80.728219
668.854219	-82.319445
669.003478	-84.308821
669.152803	-86.790196
669.302195	-89.630473
669.451653	-91.402811
669.601179	-90.029517
669.750771	-87.321009
669.900430	-84.913122
670.050156	-83.004369
670.199949	-81.506921
670.349808	-80.328691
670.499735	-79.403196
670.649729	-78.684490
670.799790	-78.140683
670.949918	-77.749311
671.100114	-77.494321
671.250377	-77.364188
671.400707	-77.350522
671.551104	-77.447218
671.701569	-77.649602
671.852101	-77.953682
672.002700	-78.355462
672.153368	-78.849716
672.304102	-79.428293
672.454905	-80.077847
672.605775	-80.776419
672.756713	-81.489449
672.907718	-82.166930
673.058791	-82.745132
673.209933	-83.158379
673.361142	-83.360591
673.512419	-83.344885
673.663764	-83.144910
673.815177	-82.816307
673.966658	-82.413880
674.118207	-81.978383
674.269825	-81.533428
674.421510	-81.088591
674.573264	-80.643947
674.725086	-80.194763
674.876977	-79.735397
675.028936	-79.262132
675.180963	-78.775189
675.333059	-78.279050
675.485224	-77.782033
675.637457	-77.295142
675.789758	-76.830670
675.942129	-76.401006
676.094568	-76.017864
676.247075	-75.692111
676.399652	-75.433614
676.552298	-75.251589
676.705012	-75.155034
676.857795	-75.153253
677.010648	-75.256575
677.163569	-75.477204
677.316560	-75.830164
677.469619	-76.335004
677.622748	-77.018049
677.775946	-77.915880
677.929214	-79.080844
678.082551	-80.588412
678.235957	-82.541069
678.389432	-85.016519
678.542977	-87.624117
678.696592	-88.198797
678.850276	-85.764905
679.004030	-82.837723
679.157853	-80.392953
679.311746	-78.441613
679.465709	-76.878592
679.619742	-75.619000
679.773844	-74.604433
679.928017	-73.795590
680.082259	-73.166103
680.236571	-72.698681
680.390954	-72.382607
680.545406	-72.212434
680.699929	-72.187383
680.854522	-72.311338
681.009185	-72.593434
681.163918	-73.049354
681.318722	-73.704123
681.473596	-74.596974
681.628540	-75.791022
681.783555	-77.393929
681.938641	-79.608039
682.093797	-82.878741
682.249023	-88.489616
682.404321	-97.213705
682.559689	-87.469256
682.715128	-81.964841
682.870637	-78.585314
683.026218	-76.195392
683.181869	-74.387194
683.337591	-72.971275
683.493385	-71.845200
683.649249	-70.947957
683.805185	-70.240970
683.961191	-69.698980
684.117269	-69.305318
684.273418	-69.049387
684.429639	-68.925151
684.585930	-68.930353
684.742294	-69.066259
684.898728	-69.337717
685.055234	-69.753736
685.211812	-70.328329
685.368461	-71.082155
685.525182	-72.044981
685.681975	-73.259170
685.838839	-74.782976
685.995775	-76.685728
686.152783	-78.986638
686.309863	-81.314770
686.467014	-82.134855
686.624238	-80.481830
686.781534	-78.023869
686.938902	-75.821133
687.096342	-74.025002
687.253854	-72.581508
687.411438	-71.422856
687.569095	-70.496335
687.726824	-69.764115
687.884626	-69.199403
688.042499	-68.783298
688.200446	-68.502713
688.358465	-68.348941
688.516556	-68.316777
688.674720	-68.404096
688.832957	-68.611685
688.991266	-68.943331
689.149649	-69.406295
689.308104	-70.012128
689.466632	-70.778167
689.625233	-71.730140
689.783906	-72.906910
689.942653	-74.369161
690.101473	-76.217970
690.260367	-78.637810
690.419333	-82.015562
690.578372	-87.338200
690.737485	-94.921263
690.896672	-88.228506
691.055931	-82.984744
691.215264	-79.820777
691.374671	-77.664447
691.534151	-76.101708
691.693704	-74.938199
691.853332	-74.068620
692.013033	-73.430337
692.172807	-72.983691
692.332656	-72.702728
692.492578	-72.570219
692.652575	-72.574952
692.812645	-72.710024
692.972789	-72.971875
693.133007	-73.359686
693.293300	-73.875018
693.453666	-74.521203
693.614107	-75.302868
693.774622	-76.224442
693.935211	-77.287098
694.095875	-78.481660
694.256613	-79.773692
694.417426	-81.076081
694.578313	-82.216612
694.739274	-82.952194
694.900311	-83.110883
695.061421	-82.754863
695.222607	-82.117572
695.383868	-81.418295
695.545203	-80.786669
695.706613	-80.281889
695.868098	-79.925762
696.029658	-79.723589
696.191293	-79.674531
696.353003	-79.776043
696.514789	-80.025473
696.676649	-80.419791
696.838585	-80.953434
697.000596	-81.614046
697.162682	-82.373086
697.324844	-83.170257
697.487081	-83.893491
697.649394	-84.375240
697.811782	-84.448852
697.974246	-84.060627
698.136786	-83.314703
698.299401	-82.385773
698.462092	-81.418655
698.624859	-80.499492
698.787702	-79.669531
698.950621	-78.944463
699.113616	-78.327394
699.276686	-77.815982
699.439833	-77.406071
699.603056	-77.093261
699.766355	-76.873855
699.929731	-76.745244
700.093183	-76.706106
700.256711	-76.756423
700.420315	-76.897627
700.583996	-77.132821
700.747754	-77.466785
700.911588	-77.906198
701.075499	-78.459407
701.239486	-79.135956
701.403550	-79.944732
701.567691	-80.888822
701.731909	-81.951776
701.896203	-83.066833
702.060575	-84.061462
702.225024	-84.622950
702.389549	-84.447420
702.554152	-83.550913
702.718832	-82.250745
702.883589	-80.851887
703.048424	-79.517583
703.213335	-78.310002
703.378324	-77.244151
703.543391	-76.316860
703.708535	-75.519453
703.873757	-74.842558
704.039056	-74.277772
704.204433	-73.818207
704.369887	-73.458457
704.535420	-73.194354
704.701030	-73.022851
704.866718	-72.941644
705.032484	-72.948691
705.198328	-73.041759
705.364250	-73.217635
705.530250	-73.470791
705.696328	-73.791292
705.862485	-74.162091
706.028720	-74.555278
706.195033	-74.928294
706.361424	-75.223388
706.527894	-75.374841
706.694442	-75.327601
706.861069	-75.060501
707.027775	-74.596744
707.194559	-73.992162
707.361422	-73.312098
707.528363	-72.613333
707.695384	-71.937058
707.862483	-71.310102
708.029661	-70.748575
708.196918	-70.261319
708.364254	-69.852851
708.531670	-69.525219
708.699164	-69.278968
708.866738	-69.113799
709.034391	-69.028870
709.202123	-69.022707
709.369935	-69.092961
709.537826	-69.235935
709.705796	-69.445602
709.873847	-69.712436
710.041976	-70.021676
710.210186	-70.351160
710.378475	-70.669999
710.546844	-70.938710
710.715292	-71.113496
710.883821	-71.155704
711.052429	-71.044006
711.221118	-70.782596
711.389887	-70.399340
711.558735	-69.935546
711.727664	-69.434154
711.896673	-68.931828
712.065763	-68.456090
712.234932	-68.025859
712.404183	-67.653193
712.573513	-67.345121
712.742924	-67.105172
712.912416	-66.934348
713.081988	-66.831727
713.251641	-66.794683
713.421375	-66.818794
713.591190	-66.897542
713.761085	-67.021764
713.931061	-67.179060
714.101119	-67.353199
714.271257	-67.523989
714.441476	-67.667990
714.611777	-67.760583
714.782159	-67.779702
714.952622	-67.710345
715.123166	-67.548184
715.293792	-67.300561
715.464499	-66.984308
715.635288	-66.621523
715.806158	-66.235285
715.977110	-65.846526
716.148143	-65.472430
716.319259	-65.126116
716.490456	-64.816956
716.661735	-64.551255
716.833096	-64.332919
717.004538	-64.163882
717.176063	-64.044525
717.347670	-63.973944
717.519359	-63.949939
717.691130	-63.968991
717.862984	-64.026222
718.034920	-64.115133
718.206938	-64.227433
718.379039	-64.352986
718.551222	-64.479906
718.723488	-64.594949
718.895836	-64.684404
719.068267	-64.735438
719.240781	-64.737759
719.413377	-64.685220
719.586057	-64.576823
719.758819	-64.416728
719.931664	-64.213377
720.104593	-63.977984
720.277604	-63.722829
720.450699	-63.459867
720.623876	-63.199770
720.797137	-62.951445
720.970482	-62.721961
721.143910	-62.516674
721.317421	-62.339397
721.491016	-62.192618
721.664694	-62.077743
721.838456	-61.995222
722.012302	-61.944677
722.186231	-61.924946
722.360244	-61.934045
722.534342	-61.969146
722.708523	-62.026568
722.882788	-62.101644
723.057137	-62.188681
723.231570	-62.281045
723.406088	-62.371255
723.580689	-62.451312
723.755375	-62.513278
723.930146	-62.549899
724.105000	-62.555367
724.279940	-62.526065
724.454963	-62.460982
724.630072	-62.361787
724.805265	-62.232561
724.980543	-62.079178
725.155905	-61.908448
725.331353	-61.727486
725.506885	-61.543034
725.682503	-61.360980
725.858205	-61.186200
726.033993	-61.022455
726.209865	-60.872433
726.385823	-60.737860
726.561866	-60.619627
726.737995	-60.517944
726.914209	-60.432446
727.090508	-60.362314
727.266893	-60.306387
727.443364	-60.263236
727.619920	-60.231204
727.796562	-60.208498
727.973290	-60.193281
728.150103	-60.183633
728.327003	-60.177640
728.503988	-60.173477
728.681060	-60.169441
728.858218	-60.164043
729.035461	-60.156035
729.212791	-60.144490
729.390208	-60.128907
