# 2022-03-22_09.27.16
# shape = sech2
# FWHM_ps = 0.11
# carrier_nm = 1542
# frep_MHz = 12126
# pow_mW = 8000
# GDD = 0.0
# propa_len = 0.11177777777777778
# untap_len = 0.01
# taper_len = 0.05177777777777778
# waist_len = 0.02
# uptap_len = 0.02
# untap_scale = 1.0
# waist_scale = 0.24210526315789477
# workingDir = NL_20110305_12 (Spirou)
# axis = slow
# window_ps = 10.0
# steps = 200
# points = 21700
# 
# wavelength [nm]	 power spectral density [dB]
600.043425	-83.214828
600.163550	-82.994033
600.283723	-82.792236
600.403943	-82.585075
600.524212	-82.348928
600.644529	-82.073171
600.764895	-81.763495
600.885308	-81.426070
601.005770	-81.076664
601.126280	-80.735450
601.246839	-80.414204
601.367446	-80.125354
601.488101	-79.874849
601.608804	-79.656516
601.729557	-79.467430
601.850357	-79.301415
601.971206	-79.148321
602.092104	-79.001213
602.213050	-78.853177
602.334045	-78.696867
602.455089	-78.527679
602.576181	-78.344484
602.697322	-78.150229
602.818511	-77.955629
602.939749	-77.768806
603.061036	-77.593826
603.182372	-77.434490
603.303757	-77.293707
603.425191	-77.171594
603.546673	-77.066488
603.668204	-76.972292
603.789785	-76.878159
603.911414	-76.779853
604.033092	-76.675245
604.154820	-76.562933
604.276596	-76.444498
604.398422	-76.323584
604.520297	-76.204518
604.642220	-76.091039
604.764193	-75.986393
604.886216	-75.892532
605.008287	-75.810656
605.130408	-75.740893
605.252578	-75.683110
605.374798	-75.630046
605.497066	-75.575523
605.619385	-75.520110
605.741752	-75.457649
605.864169	-75.385889
605.986636	-75.308219
606.109152	-75.222659
606.231718	-75.133023
606.354333	-75.050435
606.476998	-74.976395
606.599712	-74.914945
606.722476	-74.873860
606.845290	-74.849382
606.968154	-74.839504
607.091067	-74.842794
607.214030	-74.850840
607.337043	-74.859767
607.460106	-74.866324
607.583219	-74.862083
607.706381	-74.841578
607.829594	-74.808137
607.952856	-74.765167
608.076169	-74.714413
608.199531	-74.661952
608.322944	-74.614294
608.446407	-74.578598
608.569920	-74.561131
608.693483	-74.563392
608.817096	-74.586949
608.940759	-74.631280
609.064473	-74.689955
609.188237	-74.755286
609.312051	-74.820405
609.435916	-74.879652
609.559831	-74.926354
609.683796	-74.955406
609.807812	-74.971206
609.931878	-74.977222
610.055995	-74.976869
610.180162	-74.977238
610.304380	-74.984226
610.428648	-75.005977
610.552967	-75.050275
610.677337	-75.119715
610.801757	-75.214404
610.926228	-75.332901
611.050750	-75.471286
611.175323	-75.623314
611.299946	-75.780912
611.424620	-75.936662
611.549345	-76.083726
611.674121	-76.211428
611.798948	-76.316846
611.923826	-76.410142
612.048755	-76.493663
612.173734	-76.575403
612.298765	-76.668619
612.423847	-76.776249
612.548980	-76.906074
612.674165	-77.065699
612.799400	-77.258531
612.924687	-77.486395
613.050025	-77.746420
613.175414	-78.030243
613.300854	-78.329963
613.426346	-78.637571
613.551889	-78.943826
613.677484	-79.236692
613.803130	-79.506226
613.928827	-79.752853
614.054576	-79.983346
614.180377	-80.206458
614.306229	-80.434132
614.432132	-80.683087
614.558087	-80.973032
614.684094	-81.315991
614.810153	-81.712636
614.936263	-82.169124
615.062425	-82.700893
615.188639	-83.305829
615.314904	-83.984222
615.441222	-84.733736
615.567591	-85.538465
615.694012	-86.389729
615.820486	-87.273872
615.947011	-88.168676
616.073588	-89.070768
616.200217	-90.012622
616.326898	-91.030186
616.453632	-92.195467
616.580417	-93.626997
616.707255	-95.484692
616.834144	-98.120826
616.961086	-102.081706
617.088081	-107.288136
617.215127	-104.787495
617.342226	-99.420520
617.469378	-95.769580
617.596581	-93.130165
617.723837	-91.132368
617.851146	-89.573107
617.978507	-88.294339
618.105920	-87.237142
618.233386	-86.362902
618.360905	-85.610667
618.488476	-84.949012
618.616100	-84.348258
618.743777	-83.777918
618.871506	-83.221336
618.999288	-82.658004
619.127123	-82.083713
619.255011	-81.510957
619.382951	-80.945104
619.510945	-80.395381
619.638991	-79.872894
619.767090	-79.384676
619.895243	-78.938453
620.023448	-78.537080
620.151706	-78.175434
620.280017	-77.855123
620.408382	-77.573912
620.536799	-77.320549
620.665270	-77.090828
620.793794	-76.878891
620.922371	-76.672050
621.051002	-76.459847
621.179686	-76.239308
621.308423	-76.006606
621.437213	-75.761476
621.566057	-75.511747
621.694954	-75.261057
621.823905	-75.017567
621.952909	-74.789726
622.081967	-74.580309
622.211079	-74.392043
622.340244	-74.226464
622.469462	-74.083637
622.598735	-73.961711
622.728061	-73.855591
622.857441	-73.761372
622.986874	-73.674531
623.116361	-73.588585
623.245903	-73.501324
623.375498	-73.407072
623.505147	-73.302625
623.634850	-73.188363
623.764606	-73.067603
623.894417	-72.945440
624.024282	-72.825147
624.154201	-72.712465
624.284174	-72.612044
624.414202	-72.526484
624.544283	-72.457860
624.674419	-72.405856
624.804609	-72.369141
624.934853	-72.344670
625.065151	-72.329245
625.195504	-72.318221
625.325911	-72.310399
625.456373	-72.303445
625.586889	-72.292690
625.717460	-72.278063
625.848085	-72.261065
625.978764	-72.242695
626.109498	-72.223299
626.240287	-72.206410
626.371131	-72.196003
626.502029	-72.195131
626.632982	-72.206311
626.763989	-72.228295
626.895052	-72.263829
627.026169	-72.311502
627.157341	-72.369116
627.288568	-72.436682
627.419850	-72.511468
627.551187	-72.592745
627.682579	-72.680102
627.814026	-72.772409
627.945528	-72.867300
628.077085	-72.966495
628.208697	-73.069055
628.340364	-73.172572
628.472087	-73.279865
628.603865	-73.390878
628.735698	-73.506131
628.867586	-73.626897
628.999530	-73.751727
629.131529	-73.884227
629.263584	-74.025850
629.395694	-74.176289
629.527859	-74.336857
629.660080	-74.509166
629.792357	-74.694385
629.924689	-74.894786
630.057077	-75.113596
630.189520	-75.352433
630.322019	-75.613500
630.454574	-75.892644
630.587184	-76.189818
630.719851	-76.505609
630.852573	-76.830495
630.985351	-77.165047
631.118185	-77.507729
631.251075	-77.847685
631.384021	-78.190917
631.517023	-78.539719
631.650081	-78.892322
631.783195	-79.262115
631.916365	-79.654315
632.049592	-80.071784
632.182874	-80.531842
632.316213	-81.047417
632.449608	-81.623505
632.583059	-82.272371
632.716567	-83.010005
632.850131	-83.838758
632.983751	-84.764437
633.117428	-85.791589
633.251161	-86.905638
633.384951	-88.079720
633.518797	-89.288534
633.652700	-90.473807
633.786660	-91.469256
633.920676	-92.111282
634.054749	-92.277773
634.188879	-91.897940
634.323065	-91.076101
634.457308	-90.011437
634.591608	-88.847134
634.725965	-87.665610
634.860379	-86.535553
634.994850	-85.488665
635.129377	-84.522284
635.263962	-83.646955
635.398604	-82.862941
635.533303	-82.162241
635.668058	-81.542719
635.802872	-80.992631
635.937742	-80.498216
636.072669	-80.047679
636.207654	-79.629244
636.342696	-79.230614
636.477796	-78.851350
636.612953	-78.488520
636.748167	-78.131964
636.883439	-77.787509
637.018768	-77.463375
637.154155	-77.153071
637.289599	-76.859839
637.425101	-76.589672
637.560660	-76.335605
637.696277	-76.099601
637.831952	-75.881530
637.967685	-75.671088
638.103475	-75.466733
638.239324	-75.266498
638.375230	-75.064326
638.511194	-74.862510
638.647215	-74.662966
638.783295	-74.465737
638.919433	-74.276266
639.055629	-74.099861
639.191883	-73.942945
639.328195	-73.811170
639.464565	-73.702639
639.600994	-73.620180
639.737481	-73.564776
639.874025	-73.529928
640.010629	-73.510840
640.147290	-73.502165
640.284010	-73.493728
640.420789	-73.480414
640.557625	-73.459079
640.694521	-73.427163
640.831474	-73.385108
640.968487	-73.335948
641.105558	-73.286015
641.242687	-73.237007
641.379876	-73.197913
641.517123	-73.174539
641.654429	-73.168627
641.791793	-73.184457
641.929216	-73.222882
642.066699	-73.279734
642.204240	-73.354734
642.341840	-73.443512
642.479499	-73.535604
642.617217	-73.628710
642.754994	-73.719720
642.892830	-73.805177
643.030726	-73.887064
643.168680	-73.965735
643.306694	-74.046018
643.444767	-74.130972
643.582899	-74.220945
643.721091	-74.323740
643.859342	-74.439773
643.997652	-74.560370
644.136022	-74.690962
644.274451	-74.826770
644.412940	-74.956804
644.551488	-75.084715
644.690096	-75.208374
644.828763	-75.320055
644.967490	-75.428028
645.106277	-75.535092
645.245124	-75.641259
645.384030	-75.760322
645.522997	-75.896465
645.662023	-76.051836
645.801109	-76.231462
645.940255	-76.439400
646.079460	-76.667142
646.218726	-76.911375
646.358052	-77.165634
646.497438	-77.417392
646.636884	-77.655562
646.776391	-77.874018
646.915957	-78.071933
647.055584	-78.246751
647.195271	-78.399529
647.335019	-78.538979
647.474826	-78.670056
647.614695	-78.792325
647.754623	-78.917104
647.894612	-79.046913
648.034662	-79.177438
648.174772	-79.310360
648.314943	-79.453756
648.455174	-79.594784
648.595466	-79.734279
648.735819	-79.873670
648.876233	-79.997506
649.016707	-80.114126
649.157242	-80.227950
649.297838	-80.327999
649.438495	-80.428134
649.579213	-80.535181
649.719992	-80.646429
649.860832	-80.777589
650.001733	-80.931495
650.142695	-81.100925
650.283718	-81.296628
650.424803	-81.504278
650.565949	-81.712651
650.707156	-81.922026
650.848424	-82.117166
650.989754	-82.288507
651.131145	-82.440340
651.272597	-82.563578
651.414111	-82.655267
651.555687	-82.721264
651.697324	-82.762010
651.839022	-82.776043
651.980782	-82.763420
652.122604	-82.722485
652.264488	-82.647591
652.406433	-82.539241
652.548441	-82.401971
652.690510	-82.235643
652.832640	-82.034425
652.974833	-81.804532
653.117088	-81.550985
653.259405	-81.276130
653.401784	-80.986307
653.544224	-80.681576
653.686727	-80.366830
653.829293	-80.050424
653.971920	-79.728170
654.114609	-79.401390
654.257361	-79.079698
654.400175	-78.759848
654.543052	-78.436500
654.685991	-78.118487
654.828992	-77.801522
654.972056	-77.481443
655.115183	-77.164844
655.258372	-76.852234
655.401623	-76.545728
655.544937	-76.245661
655.688314	-75.955246
655.831754	-75.675335
655.975256	-75.399798
656.118822	-75.127537
656.262450	-74.862467
656.406141	-74.595532
656.549894	-74.324603
656.693711	-74.055896
656.837591	-73.787284
656.981534	-73.521263
657.125540	-73.269572
657.269610	-73.033485
657.413742	-72.812457
657.557938	-72.614912
657.702196	-72.439959
657.846519	-72.284648
657.990904	-72.150178
658.135353	-72.029437
658.279866	-71.919972
658.424441	-71.819071
658.569081	-71.720421
658.713784	-71.626839
658.858550	-71.538485
659.003381	-71.455552
659.148274	-71.386565
659.293232	-71.329426
659.438253	-71.285377
659.583339	-71.260788
659.728488	-71.249174
659.873701	-71.247248
660.018978	-71.258915
660.164318	-71.272307
660.309723	-71.281454
660.455192	-71.296743
660.600725	-71.314452
660.746323	-71.335638
660.891984	-71.370529
661.037710	-71.424718
661.183500	-71.504414
661.329354	-71.612957
661.475272	-71.753901
661.621255	-71.923701
661.767303	-72.115814
661.913415	-72.330630
662.059591	-72.563938
662.205833	-72.805610
662.352138	-73.062619
662.498509	-73.339326
662.644944	-73.633929
662.791443	-73.957906
662.938008	-74.316115
663.084638	-74.704713
663.231332	-75.123384
663.378091	-75.558711
663.524915	-75.994883
663.671804	-76.412387
663.818759	-76.785345
663.965778	-77.105698
664.112863	-77.360836
664.260012	-77.550723
664.407227	-77.700299
664.554507	-77.798456
664.701853	-77.842720
664.849264	-77.831957
664.996740	-77.730624
665.144282	-77.525193
665.291889	-77.222157
665.439561	-76.823215
665.587300	-76.362586
665.735103	-75.877468
665.882973	-75.382501
666.030908	-74.901830
666.178909	-74.436496
666.326976	-73.980771
666.475109	-73.528722
666.623307	-73.070069
666.771571	-72.604992
666.919902	-72.134258
667.068298	-71.666788
667.216761	-71.216810
667.365289	-70.791930
667.513884	-70.396372
667.662545	-70.040140
667.811272	-69.719196
667.960065	-69.423877
668.108925	-69.155507
668.257851	-68.901948
668.406843	-68.652432
668.555902	-68.412121
668.705027	-68.176113
668.854219	-67.944100
669.003478	-67.729196
669.152803	-67.534105
669.302195	-67.358404
669.451653	-67.209631
669.601179	-67.085917
669.750771	-66.977479
669.900430	-66.883761
670.050156	-66.796723
670.199949	-66.707926
670.349808	-66.618806
670.499735	-66.532096
670.649729	-66.449500
670.799790	-66.376674
670.949918	-66.321893
671.100114	-66.286729
671.250377	-66.270752
671.400707	-66.274121
671.551104	-66.288028
671.701569	-66.308730
671.852101	-66.333879
672.002700	-66.358812
672.153368	-66.386927
672.304102	-66.422388
672.454905	-66.470154
672.605775	-66.537323
672.756713	-66.627008
672.907718	-66.735638
673.058791	-66.862191
673.209933	-66.998235
673.361142	-67.131966
673.512419	-67.260210
673.663764	-67.374901
673.815177	-67.474025
673.966658	-67.563527
674.118207	-67.646069
674.269825	-67.727121
674.421510	-67.810352
674.573264	-67.890716
674.725086	-67.965694
674.876977	-68.023116
675.028936	-68.052458
675.180963	-68.053712
675.333059	-68.020056
675.485224	-67.959369
675.637457	-67.882926
675.789758	-67.794708
675.942129	-67.704869
676.094568	-67.616108
676.247075	-67.522579
676.399652	-67.419653
676.552298	-67.302778
676.705012	-67.165546
676.857795	-67.009371
677.010648	-66.838112
677.163569	-66.658174
677.316560	-66.477937
677.469619	-66.301220
677.622748	-66.130782
677.775946	-65.966444
677.929214	-65.804137
678.082551	-65.638839
678.235957	-65.468760
678.389432	-65.291692
678.542977	-65.108987
678.696592	-64.927761
678.850276	-64.752358
679.004030	-64.586689
679.157853	-64.435176
679.311746	-64.298415
679.465709	-64.172069
679.619742	-64.053907
679.773844	-63.940127
679.928017	-63.827283
680.082259	-63.717025
680.236571	-63.610384
680.390954	-63.509623
680.545406	-63.419485
680.699929	-63.342578
680.854522	-63.279351
681.009185	-63.230918
681.163918	-63.193888
681.318722	-63.165656
681.473596	-63.143090
681.628540	-63.123346
681.783555	-63.105957
681.938641	-63.090667
682.093797	-63.081000
682.249023	-63.076802
682.404321	-63.080902
682.559689	-63.092336
682.715128	-63.107856
682.870637	-63.126366
683.026218	-63.143078
683.181869	-63.158346
683.337591	-63.170230
683.493385	-63.180215
683.649249	-63.191401
683.805185	-63.204204
683.961191	-63.219755
684.117269	-63.237809
684.273418	-63.256985
684.429639	-63.274188
684.585930	-63.287773
684.742294	-63.295901
684.898728	-63.297896
685.055234	-63.295080
685.211812	-63.287194
685.368461	-63.275619
685.525182	-63.259876
685.681975	-63.238175
685.838839	-63.210306
685.995775	-63.172666
686.152783	-63.124850
686.309863	-63.068149
686.467014	-63.003349
686.624238	-62.933585
686.781534	-62.859498
686.938902	-62.782434
687.096342	-62.701571
687.253854	-62.616018
687.411438	-62.524954
687.569095	-62.428944
687.726824	-62.328360
687.884626	-62.226346
688.042499	-62.125547
688.200446	-62.025908
688.358465	-61.930060
688.516556	-61.837806
688.674720	-61.747439
688.832957	-61.658776
688.991266	-61.571364
689.149649	-61.484989
689.308104	-61.401523
689.466632	-61.322629
689.625233	-61.250640
689.783906	-61.186065
689.942653	-61.128741
690.101473	-61.078006
690.260367	-61.031901
690.419333	-60.988443
690.578372	-60.945834
690.737485	-60.903713
690.896672	-60.862547
691.055931	-60.822805
691.215264	-60.787328
691.374671	-60.756994
691.534151	-60.731623
691.693704	-60.710923
691.853332	-60.693519
692.013033	-60.677730
692.172807	-60.662119
692.332656	-60.647935
692.492578	-60.635404
692.652575	-60.627223
692.812645	-60.625597
692.972789	-60.633341
693.133007	-60.650086
693.293300	-60.674895
693.453666	-60.707145
693.614107	-60.742526
693.774622	-60.779227
693.935211	-60.816363
694.095875	-60.853928
694.256613	-60.891274
694.417426	-60.931363
694.578313	-60.973176
694.739274	-61.015481
694.900311	-61.056050
695.061421	-61.091678
695.222607	-61.119503
695.383868	-61.136081
695.545203	-61.140306
695.706613	-61.132144
695.868098	-61.110012
696.029658	-61.075630
696.191293	-61.029579
696.353003	-60.971901
696.514789	-60.902038
696.676649	-60.820000
696.838585	-60.724999
697.000596	-60.617317
697.162682	-60.498732
697.324844	-60.371173
697.487081	-60.237688
697.649394	-60.101615
697.811782	-59.964982
697.974246	-59.830673
698.136786	-59.698743
698.299401	-59.570565
698.462092	-59.446421
698.624859	-59.326252
698.787702	-59.210503
698.950621	-59.100944
699.113616	-58.999717
699.276686	-58.907877
699.439833	-58.828037
699.603056	-58.759861
699.766355	-58.703706
699.929731	-58.659087
700.093183	-58.624432
700.256711	-58.599502
700.420315	-58.584185
700.583996	-58.578667
700.747754	-58.585529
700.911588	-58.606090
701.075499	-58.641685
701.239486	-58.693342
701.403550	-58.760295
701.567691	-58.839842
701.731909	-58.930146
701.896203	-59.029777
702.060575	-59.137286
702.225024	-59.253990
702.389549	-59.380619
702.554152	-59.517344
702.718832	-59.663594
702.883589	-59.814591
703.048424	-59.964398
703.213335	-60.105111
703.378324	-60.230011
703.543391	-60.334046
703.708535	-60.415188
703.873757	-60.472144
704.039056	-60.505447
704.204433	-60.515232
704.369887	-60.498627
704.535420	-60.452900
704.701030	-60.372916
704.866718	-60.258625
705.032484	-60.113232
705.198328	-59.944685
705.364250	-59.761374
705.530250	-59.571752
705.696328	-59.380970
705.862485	-59.190960
706.028720	-59.001172
706.195033	-58.810556
706.361424	-58.619815
706.527894	-58.433368
706.694442	-58.256987
706.861069	-58.097414
707.027775	-57.960013
707.194559	-57.845946
707.361422	-57.753094
707.528363	-57.679664
707.695384	-57.621238
707.862483	-57.577464
708.029661	-57.549724
708.196918	-57.541176
708.364254	-57.557169
708.531670	-57.600284
708.699164	-57.669624
708.866738	-57.763787
709.034391	-57.877565
709.202123	-58.006076
709.369935	-58.148734
709.537826	-58.304472
709.705796	-58.475594
709.873847	-58.663911
710.041976	-58.867001
710.210186	-59.079286
710.378475	-59.291220
710.546844	-59.491158
710.715292	-59.668946
710.883821	-59.818840
711.052429	-59.936224
711.221118	-60.021924
711.389887	-60.073365
711.558735	-60.086534
711.727664	-60.057710
711.896673	-59.982608
712.065763	-59.861038
712.234932	-59.699675
712.404183	-59.508991
712.573513	-59.300315
712.742924	-59.084171
712.912416	-58.867437
713.081988	-58.653015
713.251641	-58.442768
713.421375	-58.238675
713.591190	-58.043422
713.761085	-57.862577
713.931061	-57.701794
714.101119	-57.565900
714.271257	-57.456103
714.441476	-57.372975
714.611777	-57.313997
714.782159	-57.276949
714.952622	-57.260723
715.123166	-57.267305
715.293792	-57.299655
715.464499	-57.361225
715.635288	-57.454599
715.806158	-57.579930
715.977110	-57.734739
716.148143	-57.915356
716.319259	-58.117515
716.490456	-58.337294
716.661735	-58.572607
716.833096	-58.820745
717.004538	-59.078820
717.176063	-59.341515
717.347670	-59.598909
717.519359	-59.837149
717.691130	-60.039644
717.862984	-60.194213
718.034920	-60.293588
718.206938	-60.337549
718.379039	-60.327914
718.551222	-60.265983
718.723488	-60.152207
718.895836	-59.987306
719.068267	-59.776705
719.240781	-59.530316
719.413377	-59.262531
719.586057	-58.987857
719.758819	-58.718558
719.931664	-58.464381
720.104593	-58.228530
720.277604	-58.012802
720.450699	-57.818157
720.623876	-57.645499
720.797137	-57.498723
720.970482	-57.382065
721.143910	-57.300354
721.317421	-57.254795
721.491016	-57.244951
721.664694	-57.267560
721.838456	-57.319807
722.012302	-57.400318
722.186231	-57.510176
722.360244	-57.652289
722.534342	-57.830576
722.708523	-58.046243
722.882788	-58.297327
723.057137	-58.578733
723.231570	-58.882603
723.406088	-59.199018
723.580689	-59.519280
723.755375	-59.834644
723.930146	-60.135395
724.105000	-60.409290
724.279940	-60.640297
724.454963	-60.809500
724.630072	-60.901394
724.805265	-60.911010
724.980543	-60.840028
725.155905	-60.698147
725.331353	-60.499224
725.506885	-60.255889
725.682503	-59.981508
725.858205	-59.690058
726.033993	-59.393246
726.209865	-59.103117
726.385823	-58.831222
726.561866	-58.584849
726.737995	-58.370131
726.914209	-58.190655
727.090508	-58.047592
727.266893	-57.941578
727.443364	-57.874635
727.619920	-57.848852
727.796562	-57.865742
727.973290	-57.926119
728.150103	-58.029227
728.327003	-58.173109
728.503988	-58.358616
728.681060	-58.587381
728.858218	-58.860702
729.035461	-59.178281
729.212791	-59.535125
729.390208	-59.920819
729.567710	-60.321972
