# wavelength [m]	effective refractive index	transmission [dB/m]	effective mode area [m]	effective refractive index	transmission [dB/m]	effective mode area [m]	
3.599999999999993061e-07	1.462152337507403033e+00	5.094185204339622225e-10	8.283218581742256786e-13	1.462639651677243968e+00	-2.622927236043425289e-06	8.481943277058500728e-13
3.799999999999993264e-07	1.457938729578236892e+00	-2.799640323437217762e-09	8.379583553960433088e-13	1.458513530852467932e+00	-1.808450844634942795e-06	8.590901315051077745e-13
3.999999999999993466e-07	1.454103764089426098e+00	1.663848312749213113e-07	8.478245834411883517e-13	1.454774034160114082e+00	-2.973884016363881180e-06	8.701520426593061717e-13
4.199999999999993669e-07	1.450559346118091009e+00	1.653821605138572415e-12	8.579654834787654037e-13	1.451333550051087107e+00	-4.925813629257532620e-10	8.814107003282042823e-13
4.399999999999993872e-07	1.447239669820512109e+00	-2.064775642316420286e-08	8.683811548557378451e-13	1.448126268705347997e+00	-1.176459217565617956e-06	8.928764969107545845e-13
4.599999999999994074e-07	1.444094754666251035e+00	-4.222503735955411515e-08	8.790875757097242542e-13	1.445102332758009922e+00	-2.148584487129368412e-06	9.045644188269584538e-13
4.799999999999994277e-07	1.441086161614163919e+00	-3.389644954273251169e-08	8.901003830123854714e-13	1.442223404116399932e+00	-2.587940535100890948e-06	9.164879326223526985e-13
4.999999999999994480e-07	1.438184007346763993e+00	-4.258690230446479445e-07	9.014351151291194113e-13	1.439459678006512977e+00	-3.637241573523184742e-06	9.286592409447994844e-13
5.199999999999994682e-07	1.435364849165003953e+00	-3.685332889201634900e-07	9.131071644565813469e-13	1.436787766479199924e+00	-5.039202752704357655e-06	9.410892959028633357e-13
5.399999999999994885e-07	1.432610160552880041e+00	-1.872973656682716731e-08	9.251317599665805736e-13	1.434189172972893944e+00	1.191454645221529192e-08	9.537878270230863481e-13
5.599999999999995088e-07	1.429904876814438897e+00	-1.250414738937605915e-08	9.375162596501706268e-13	1.431649048224924892e+00	-7.093732970464743428e-08	9.667686927416559104e-13
5.799999999999995291e-07	1.427237915493219989e+00	-1.164613316930135200e-06	9.502910332253670516e-13	1.429155871095324049e+00	-1.633906770226765132e-05	9.800288660614026660e-13
5.999999999999995493e-07	1.424599523471062890e+00	-1.967240234966699109e-08	9.634625232400101329e-13	1.426700041379957984e+00	-2.568777596818450898e-07	9.935789339791449872e-13
6.199999999999995696e-07	1.421982154376691954e+00	-1.860152103281438022e-08	9.770452980682269897e-13	1.424273941207043981e+00	-1.044842641240042231e-07	1.007424691902493562e-12
6.399999999999995899e-07	1.419379756667404902e+00	-1.538479157315633125e-06	9.910530021512124480e-13	1.421871412940151957e+00	-2.616982564964943870e-05	1.021569339443740224e-12
6.599999999999996101e-07	1.416787491334912996e+00	-2.456930782373303298e-06	1.005499039429528992e-12	1.419487486200043058e+00	-2.114861349299058181e-05	1.036015320840708475e-12
6.799999999999996304e-07	1.414201505191855945e+00	-7.139562063425927480e-06	1.020396353865235155e-12	1.417118149001171945e+00	-3.033212343156244984e-05	1.050763882297456100e-12
6.999999999999996507e-07	1.411618751783400905e+00	6.323095198185300277e-12	1.035757391152447224e-12	1.414760168991924028e+00	1.409943188845272356e-11	1.065815107929010842e-12
7.199999999999996710e-07	1.409036848071747006e+00	8.189706574938211165e-08	1.051594071702166097e-12	1.412410950645061058e+00	3.400899460926678638e-09	1.081167949686034425e-12
7.399999999999996912e-07	1.406453958879535060e+00	6.193526090532811898e-08	1.067917765214994661e-12	1.410068420386183963e+00	3.933953647145597373e-09	1.096820289094076530e-12
7.599999999999997115e-07	1.403868703065686896e+00	-1.073335380702370448e-05	1.084739280658603697e-12	1.407730933616371027e+00	-6.273706118199673073e-05	1.112768993535001842e-12
7.799999999999997318e-07	1.401280076860464963e+00	3.183576694574041423e-09	1.102068861481693327e-12	1.405397199055993918e+00	3.518030533513215335e-10	1.129010011771547170e-12
7.999999999999997520e-07	1.398687390857676904e+00	-1.738630831024132935e-09	1.119916199510574605e-12	1.403066216868753990e+00	-1.890046154739453448e-09	1.145538430697536739e-12
8.199999999999997723e-07	1.396090217959087054e+00	1.356326581705080425e-11	1.138290451488392612e-12	1.400737227882072000e+00	-3.126590728443649829e-11	1.162348609081148222e-12
8.399999999999997926e-07	1.393488350165630996e+00	4.210928748177824141e-11	1.157200274967913343e-12	1.398409671742578908e+00	1.729039147526601919e-11	1.179434271476671839e-12
8.599999999999998129e-07	1.390881762562478974e+00	-1.767130082462493752e-11	1.176653873961374832e-12	1.396083152357064039e+00	-1.925569085217872790e-11	1.196788630038210907e-12
8.799999999999998331e-07	1.388270583190772012e+00	7.429564533249595323e-11	1.196659057530608200e-12	1.393757409284706039e+00	6.279989760389566975e-11	1.214404509372121663e-12
8.999999999999998534e-07	1.385655067764000936e+00	6.690021799161901201e-11	1.217223310541146272e-12	1.391432294020467975e+00	9.441730225012971273e-12	1.232274475859053842e-12
9.199999999999998737e-07	1.383035578392191045e+00	1.479644778104826971e-10	1.238353876034072988e-12	1.389107750314531042e+00	3.706103319441779858e-11	1.250390969515185526e-12
9.399999999999998939e-07	1.380412565636758959e+00	9.566899930076478501e-11	1.260057848455235920e-12	1.386783797833669896e+00	7.113168691478760357e-11	1.268746436475368371e-12
9.599999999999999142e-07	1.377786553344160003e+00	1.564418805686555269e-10	1.282342276790776826e-12	1.384460518597453005e+00	1.172111105755707099e-10	1.287333460248767891e-12
9.799999999999999345e-07	1.375158125805489018e+00	1.677534417509034237e-10	1.305214276497950270e-12	1.382138045723126041e+00	-3.212994469447455003e-11	1.306144890017421524e-12
9.999999999999999547e-07	1.372527916867732900e+00	-6.511139054172675763e-12	1.328681148994550461e-12	1.379816554093727943e+00	3.168876487829196028e-11	1.325173964410975999e-12
1.019999999999999975e-06	1.369896600685811094e+00	-5.039768205730030810e-11	1.352750507381037773e-12	1.377496252629520912e+00	-5.438903344141251633e-11	1.344414429386939508e-12
1.039999999999999995e-06	1.367264883855316082e+00	-5.488421559549386177e-11	1.377430407019218951e-12	1.375177377895755892e+00	-1.519876520037295297e-11	1.363860649066580375e-12
1.060000000000000016e-06	1.364633498707829018e+00	-5.691123193021496010e-11	1.402729479578059496e-12	1.372860188823681105e+00	4.285278395848355038e-11	1.383507708610530643e-12
1.080000000000000036e-06	1.362003197584664926e+00	-3.968072519202737358e-10	1.428657069180662233e-12	1.370544962357540086e+00	-1.770794526867902437e-10	1.403351508458581459e-12
1.100000000000000056e-06	1.359374747933657090e+00	-5.518855734709785369e-10	1.455223369342525123e-12	1.368231989870509091e+00	-2.440100469973657405e-10	1.423388849493335516e-12
1.120000000000000076e-06	1.356748928097117002e+00	-1.390000414897947053e-09	1.482439559477268423e-12	1.365921574217449974e+00	-4.772557886618439973e-10	1.443617508915191117e-12
1.140000000000000097e-06	1.354126523679439975e+00	-3.195730598141379211e-09	1.510317939855755648e-12	1.363614027313617916e+00	-9.799129271782718674e-10	1.464036306824415521e-12
1.160000000000000117e-06	1.351508324399703032e+00	-7.215538326234264696e-09	1.538872064035509209e-12	1.361309668146116980e+00	-1.911742076255199117e-09	1.484645163696599933e-12
1.180000000000000137e-06	1.348895121349309001e+00	-1.557922037934142313e-08	1.568116867921237724e-12	1.359008821140101908e+00	-4.013148079644757019e-09	1.505445149102743739e-12
1.200000000000000157e-06	1.346287704587215917e+00	-3.370224845436929067e-08	1.598068794771812198e-12	1.356711814814427042e+00	-8.441415029949466276e-09	1.526438522165772122e-12
1.220000000000000178e-06	1.343686861016075929e+00	-6.998485911100601600e-08	1.628745915627700723e-12	1.354418980672313033e+00	-1.710493446143595370e-08	1.547628764359359474e-12
1.240000000000000198e-06	1.341093372491988900e+00	-1.430767618152338592e-07	1.660168044791303125e-12	1.352130652281865020e+00	-3.466911837789890761e-08	1.569020605343262484e-12
1.260000000000000218e-06	1.338508014128539036e+00	-2.870174925222367275e-07	1.692356850148030665e-12	1.349847164508962916e+00	-6.778523198221872934e-08	1.590620042593532404e-12
1.280000000000000239e-06	1.335931552762867902e+00	-5.646678565391580088e-07	1.725335958263098799e-12	1.347568852871831036e+00	-1.308028588114125891e-07	1.612434355627308408e-12
1.300000000000000259e-06	1.333364745557443998e+00	-1.091009262838116810e-06	1.759131054329857729e-12	1.345296052992069891e+00	-2.475030033836463685e-07	1.634472115643005427e-12
1.320000000000000279e-06	1.330808338716318096e+00	-2.070813682198338285e-06	1.793769977167160017e-12	1.343029100121631014e+00	-4.604507955488535757e-07	1.656743191399518723e-12
1.340000000000000299e-06	1.328263066299123052e+00	-3.863791189545420902e-06	1.829282809582519100e-12	1.340768328729273984e+00	-8.436679826510598795e-07	1.679258752149353233e-12
1.360000000000000320e-06	1.325729649119778086e+00	-7.092271849627079352e-06	1.865701964515588271e-12	1.338514072133285993e+00	-1.522115320619960663e-06	1.702031268411045875e-12
1.380000000000000340e-06	1.323208793719856891e+00	-1.281259404394777951e-05	1.903062267460900073e-12	1.336266662169907082e+00	-2.705859598516692198e-06	1.725074511339200866e-12
1.400000000000000360e-06	1.320701191409415109e+00	-2.279465730012242099e-05	1.941401035746305592e-12	1.334026428889395044e+00	-4.742305658382273047e-06	1.748403551406265133e-12
1.420000000000000380e-06	1.318207517369935911e+00	-3.995721542805306546e-05	1.980758155299351452e-12	1.331793700273268044e+00	-8.197442490609713203e-06	1.772034757064870033e-12
1.440000000000000401e-06	1.315728429816009015e+00	-6.904421978830742530e-05	2.021176155584223892e-12	1.329568801968014080e+00	-1.398186401864730220e-05	1.795985794012634388e-12
1.460000000000000421e-06	1.313264569213502098e+00	-1.176606763414719315e-04	2.062700283427693969e-12	1.327352057031603971e+00	-2.354364904762091743e-05	1.820275625631191206e-12
1.480000000000000441e-06	1.310816557553190931e+00	-1.978341683143153425e-04	2.105378576481848878e-12	1.325143785690265030e+00	-3.915369747536793702e-05	1.844924515121718617e-12
1.500000000000000462e-06	1.308384997679445050e+00	-3.283353810315403783e-04	2.149261937087666196e-12	1.322944305103644025e+00	-6.433322910336852828e-05	1.869954029812398293e-12
1.520000000000000482e-06	1.305970472674194083e+00	-5.380902333367088616e-04	2.194404207319046754e-12	1.320753929137195026e+00	-1.044792801604522243e-04	1.895387048067676179e-12
1.540000000000000502e-06	1.303573545296661029e+00	-8.711237790901086306e-04	2.240862245990271760e-12	1.318572968141006108e+00	-1.677704867930942525e-04	1.921247769186878431e-12
1.560000000000000522e-06	1.301194757479533948e+00	-1.393638764697148914e-03	2.288696008413988946e-12	1.316401728734666987e+00	-2.664669045507551330e-04	1.947561726642494354e-12
1.580000000000000543e-06	1.298834629882261060e+00	-2.204030781283804197e-03	2.337968629694027426e-12	1.314240513598049054e+00	-4.187521463476102370e-04	1.974355804973207832e-12
1.600000000000000563e-06	1.296493661502108985e+00	-3.446884162245282199e-03	2.388746512333261210e-12	1.312089621268015982e+00	-6.513221558201140503e-04	2.001658260617473021e-12
1.620000000000000583e-06	1.294172329343366901e+00	-5.332315883317619368e-03	2.441099418931101700e-12	1.309949345941215926e+00	-1.002978523946665640e-03	2.029498746947551544e-12
1.640000000000000603e-06	1.291871088144959101e+00	-8.162392779087821251e-03	2.495100570737187791e-12	1.307819977283215973e+00	-1.529573152780102805e-03	2.057908343742785713e-12
1.660000000000000624e-06	1.289590370166256994e+00	-1.236682524794221680e-02	2.550826752820338223e-12	1.305701800244132071e+00	-2.310748050185299982e-03	2.086919591324059124e-12
1.680000000000000644e-06	1.287330585030797891e+00	-1.855066560742223147e-02	2.608358426601058062e-12	1.303595094881143002e+00	-3.459028211388161158e-03	2.116566529557817834e-12
1.700000000000000664e-06	1.285092119627023965e+00	-2.755730633354747799e-02	2.667779850482334430e-12	1.301500136188016077e+00	-5.131984925444674044e-03	2.146884741929359264e-12
1.720000000000000684e-06	1.282875338065045057e+00	-4.055121860507119452e-02	2.729179209333517717e-12	1.299417193931931891e+00	-7.548355540320564848e-03	2.177911404879834850e-12
1.740000000000000705e-06	1.280680581687797082e+00	-5.912426682852438969e-02	2.792648753455086875e-12	1.297346532497720917e+00	-1.100921839450598634e-02	2.209685342597646516e-12
1.760000000000000725e-06	1.278508169134989991e+00	-8.543300422168573216e-02	2.858284947847334192e-12	1.295288410739664053e+00	-1.592557512836500697e-02	2.242247087457743912e-12
1.780000000000000745e-06	1.276358396457500932e+00	-1.223720889661589761e-01	2.926188632327024592e-12	1.293243081840893982e+00	-2.285396495179610465e-02	2.275638946303258337e-12
1.800000000000000766e-06	1.274231537279896020e+00	-1.737923853291726828e-01	2.996465193194180174e-12	1.291210793180421090e+00	-3.254208220496176973e-02	2.309905072771426577e-12
1.820000000000000786e-06	1.272127843008272974e+00	-2.447721752611737300e-01	3.069224747020254345e-12	1.289191786207730894e+00	-4.598671707428778066e-02	2.345091545870647076e-12
1.840000000000000806e-06	1.270047543080415009e+00	-3.419511827874339716e-01	3.144582337095736127e-12	1.287186296324823953e+00	-6.450677151273366550e-02	2.381246455027000490e-12
1.860000000000000826e-06	1.267990845254995946e+00	-4.739379729438262245e-01	3.222658142998190022e-12	1.285194552775561938e+00	-8.983453665390751797e-02	2.418419991824701485e-12
1.880000000000000847e-06	1.265957935936367962e+00	-6.518020578430938627e-01	3.303577703647183744e-12	1.283216778542086045e+00	-1.242289153332094553e-01	2.456664548676279947e-12
1.900000000000000867e-06	1.263948980531206967e+00	-8.896626062730219608e-01	3.387472154092957054e-12	1.281253190248021090e+00	-1.706147854782238682e-01	2.496034824667722372e-12
1.920000000000001099e-06	1.261964123833211104e+00	-1.205385948746318325e+00	3.474478476134440933e-12	1.279303998068147985e+00	-2.327532357974665400e-01	2.536587938830040408e-12
1.940000000000000907e-06	1.260003490431840900e+00	-1.621404007592416541e+00	3.564739762674580224e-12	1.277369405644172895e+00	-3.154479419544788943e-01	2.578383551095569818e-12
1.960000000000000716e-06	1.258067185140949062e+00	-2.165665292624387117e+00	3.658405495494914866e-12	1.275449610006099022e+00	-4.247934957413582735e-01	2.621483991200921306e-12
1.980000000000000948e-06	1.256155293443161014e+00	-2.872729102048521721e+00	3.755631835856622418e-12	1.273544801498772028e+00	-5.684719868528040898e-01	2.665954395795549272e-12
2.000000000000001180e-06	1.254267881945686947e+00	-3.785011972080343234e+00	3.856581927006121004e-12	1.271655163712984926e+00	-7.561046038779805079e-01	2.711862854010503358e-12
2.020000000000000989e-06	1.252404998843327011e+00	-4.954193183671144141e+00	3.961426207291203140e-12	1.269780873420571110e+00	-9.996653818406477932e-01	2.759280561727499190e-12
2.040000000000000797e-06	1.250566674384324894e+00	-6.442783192993167596e+00	4.070342732140309642e-12	1.267922100512760997e+00	-1.313964494449827214e+00	2.808281984768850113e-12
2.060000000000001029e-06	1.248752921334939092e+00	-8.325855183089984735e+00	4.183517502663461897e-12	1.266079007941133039e+00	-1.717208610644710420e+00	2.858945031197718601e-12
2.080000000000001261e-06	1.246963735438523013e+00	-1.069293554377081001e+01	4.301144798066221296e-12	1.264251751660278034e+00	-2.231645781863980993e+00	2.911351232876076953e-12
2.100000000000001070e-06	1.245199095865185068e+00	-1.365004398068877123e+01	4.423427508434572122e-12	1.262440480571372037e+00	-2.884302059379794780e+00	2.965585936374170195e-12
2.120000000000000878e-06	1.243458965649373971e+00	-1.732193748370470487e+01	4.550577446637406933e-12	1.260645336465320065e+00	-3.707784998788681285e+00	3.021738503664591816e-12
2.140000000000001110e-06	1.241743292104872110e+00	-2.185411995374824556e+01	4.682815735555144087e-12	1.258866453966801968e+00	-4.741352535502157295e+00	3.079902520076791516e-12
2.160000000000001342e-06	1.240052007232129050e+00	-2.741563557707099008e+01	4.820373016308930148e-12	1.257103960472288007e+00	-6.031762059308476864e+00	3.140176015471135194e-12
2.180000000000001151e-06	1.238385028090263074e+00	-3.420121076852823450e+01	4.963489797823440394e-12	1.255357976088891991e+00	-7.634567613952509824e+00	3.202661690231337631e-12
2.200000000000000959e-06	1.236742257150664992e+00	-4.243375838451355975e+01	5.112416698578580442e-12	1.253628613566891037e+00	-9.615359771876176964e+00	3.267467151624195771e-12
2.220000000000001191e-06	1.235123582622527083e+00	-5.236677141675283309e+01	5.267414668122950787e-12	1.251915978227138959e+00	-1.205115372615901137e+01	3.334705157561311760e-12
2.240000000000001423e-06	1.233528878750518087e+00	-6.428662330729306973e+01	5.428755163734387752e-12	1.250220167881866962e+00	-1.503188740800569789e+01	3.404493867324648835e-12
2.260000000000001232e-06	1.231958006084135082e+00	-7.851471563497186423e+01	5.596720272691934823e-12	1.248541272747617947e+00	-1.866202345955036535e+01	3.476957098213916423e-12
2.280000000000001040e-06	1.230410811719004016e+00	-9.540941001368923935e+01	5.771602770017371912e-12	1.246879375349259078e+00	-2.306224561143555363e+01	3.552224586819688180e-12
2.300000000000001272e-06	1.228887129511166965e+00	-1.153676786423412182e+02	5.953706101074644792e-12	1.245234550413915953e+00	-2.837123644814888124e+01	3.630432253351760881e-12
2.320000000000001504e-06	1.227386780266243038e+00	-1.388264073187371821e+02	6.143344278112816352e-12	1.243606864753920904e+00	-3.474751973322982224e+01	3.711722467144491174e-12
2.340000000000001313e-06	1.225909571906117046e+00	-1.662632861337343684e+02	6.340841679742776183e-12	1.241996377137857044e+00	-4.237134649330193525e+01	3.796244311138159055e-12
2.360000000000001121e-06	1.224455299616681092e+00	-1.981972266702233298e+02	6.546532742485341559e-12	1.240403138149053008e+00	-5.144660002674800126e+01	3.884153842785349241e-12
2.380000000000001353e-06	1.223023745980885924e+00	-2.351882504596656531e+02	6.760761533948269860e-12	1.238827190031021042e+00	-6.220269100984216948e+01	3.975614348470970721e-12
2.400000000000001585e-06	1.221614681102114908e+00	-2.778368017073321994e+02	6.983881197910420816e-12	1.237268566519629021e+00	-7.489641007011198326e+01	4.070796588158681368e-12
2.420000000000001394e-06	1.220227862723491041e+00	-3.267824478013785665e+02	7.216253262641475691e-12	1.235727292662047061e+00	-8.981370170119491547e+01	4.169879026600901287e-12
2.440000000000001202e-06	1.218863036339105088e+00	-3.827022746912095954e+02	7.458246791847073847e-12	1.234203384612668986e+00	-1.072715258736762109e+02	4.273048042093014793e-12
2.460000000000001435e-06	1.217519935363414962e+00	-4.463070769910735294e+02	7.710237448382357651e-12	1.232696849466496047e+00	-1.276186103379423855e+02	4.380498137457038206e-12
2.480000000000001667e-06	1.216198281219522004e+00	-5.183398581741292901e+02	7.972606287700468686e-12	1.231207684986048934e+00	-1.512377674930242790e+02	4.492432077944430634e-12
2.500000000000001475e-06	1.214897783543317011e+00	-5.995709149141898706e+02	8.245738506951816006e-12	1.229735879411474997e+00	-1.785463138434342341e+02	4.609061042295560563e-12
