# wavelength [m]	effective refractive index	transmission [dB/m]	effective mode area [m]	effective refractive index	transmission [dB/m]	effective mode area [m]	
3.599999999999993061e-07	1.454951640993477957e+00	-8.385430998770260746e-09	5.442828150591114136e-13	1.455930299449508913e+00	-4.495710589406462504e-06	5.600426448514158415e-13
3.799999999999993264e-07	1.450020123620058055e+00	-2.864999168954494407e-08	5.530134094426376989e-13	1.451162660085258960e+00	-6.151393809047632025e-06	5.695069103141152512e-13
3.999999999999993466e-07	1.445447321691847975e+00	-4.132691321678162540e-07	5.620537344291922937e-13	1.446767824406141045e+00	-7.489732852818722355e-06	5.792062437280673599e-13
4.199999999999993669e-07	1.441147055028020985e+00	-4.832600148603903379e-07	5.714248986587427966e-13	1.442659718122067947e+00	-6.158819909633833400e-06	5.891562535304860605e-13
4.399999999999993872e-07	1.437055006043449046e+00	7.871341306820455217e-07	5.811426173723449098e-13	1.438774274066161984e+00	-1.439255295752229871e-05	5.993733868605523656e-13
4.599999999999994074e-07	1.433123716526544023e+00	-1.348480874283982787e-06	5.912362777538378242e-13	1.435063597967989990e+00	-2.472146109861316513e-05	6.098622952909464022e-13
4.799999999999994277e-07	1.429316240531504967e+00	-2.387712229655355225e-08	6.017200130702070315e-13	1.431490846456088040e+00	-4.114577508545811198e-07	6.206343217826908268e-13
4.999999999999994480e-07	1.425604508436856044e+00	-4.982471317338098468e-06	6.126124674747607954e-13	1.428027790172607059e+00	-2.815805534194603619e-05	6.316965636157574519e-13
5.199999999999994682e-07	1.421966861194593923e+00	-2.557235881529018962e-09	6.239311701921727536e-13	1.424652532559927964e+00	-4.981597564956712038e-09	6.430531525050125546e-13
5.399999999999994885e-07	1.418386524211584954e+00	-1.248996934681613534e-11	6.356929286232012949e-13	1.421347993409979082e+00	-1.943119845109220451e-11	6.547064413006594504e-13
5.599999999999995088e-07	1.414850483630047950e+00	1.226546467470406236e-07	6.479136573807291424e-13	1.418100783840454016e+00	5.517683108654708933e-09	6.666568060715005256e-13
5.799999999999995291e-07	1.411348650758821099e+00	1.007410423794059181e-07	6.606083349238848205e-13	1.414900372463087974e+00	4.998035003054792786e-09	6.789027426102340072e-13
5.999999999999995493e-07	1.407873231869229080e+00	-1.343892869011468390e-05	6.737909762776032329e-13	1.411738457628681109e+00	-8.455803533591363765e-05	6.914409934676110183e-13
6.199999999999995696e-07	1.404418247169936906e+00	3.961910464703030088e-09	6.874746271883795592e-13	1.408608489517140905e+00	4.858378209214940734e-11	7.042667167679146136e-13
6.399999999999995899e-07	1.400979159681905006e+00	-3.993617553628817982e-11	7.016713888811103808e-13	1.405505302698804915e+00	-1.018556421646855489e-10	7.173736522468222590e-13
6.599999999999996101e-07	1.397552586134596098e+00	1.156305778579322241e-10	7.163924659572477655e-13	1.402424831240195902e+00	-9.024947894072675913e-11	7.307543558106818541e-13
6.799999999999996304e-07	1.394136069816259038e+00	1.310559600124805060e-10	7.316482490679326606e-13	1.399363886151369973e+00	-1.154251761092490939e-11	7.444004246825419564e-13
6.999999999999996507e-07	1.390727900740164946e+00	2.571668487796692179e-11	7.474484267443770049e-13	1.396319980458138987e+00	5.990691520427667181e-11	7.583027523739032259e-13
7.199999999999996710e-07	1.387326972314276929e+00	9.965360039350236100e-12	7.638021277730599469e-13	1.393291190977415939e+00	4.828387625029625051e-12	7.724517929217684791e-13
7.399999999999996912e-07	1.383932666430770064e+00	2.384849327643458185e-10	7.807180921935059338e-13	1.390276048616821969e+00	-4.102104393617073662e-11	7.868378303944560062e-13
7.599999999999997115e-07	1.380544760861986076e+00	-1.136170621094569117e-11	7.982048683825767673e-13	1.387273450997827062e+00	-1.189893304271067043e-10	8.014512475837368668e-13
7.799999999999997318e-07	1.377163354288355901e+00	3.166754967402794052e-11	8.162710329316189104e-13	1.384282592652605004e+00	-1.122322878687879445e-10	8.162827881306575896e-13
7.999999999999997520e-07	1.373788805346694009e+00	9.730835599386895557e-11	8.349254294389514058e-13	1.381302909121296940e+00	-5.536107552771051866e-11	8.313238069170220194e-13
8.199999999999997723e-07	1.370421682881556968e+00	-7.713173241233316713e-12	8.541774219500230475e-13	1.378334032085017036e+00	-2.528177319070111167e-11	8.465665043317239320e-13
8.399999999999997926e-07	1.367062725182609961e+00	-2.460794937407058359e-10	8.740371585875405718e-13	1.375375753284050040e+00	-5.804672752209648576e-11	8.620041409257330930e-13
8.599999999999998129e-07	1.363712806450078086e+00	-3.191065662963382739e-10	8.945158409193545548e-13	1.372427995442558890e+00	-1.350820271894187001e-10	8.776312299371168157e-13
8.799999999999998331e-07	1.360372909085578952e+00	-9.939308733990092634e-10	9.156259947967854701e-13	1.369490788787224966e+00	-2.529165754789614444e-10	8.934437061380980703e-13
8.999999999999998534e-07	1.357044100683594046e+00	-3.434455166469936776e-09	9.373817387370732273e-13	1.366564252033948046e+00	-1.037212300926708109e-09	9.094390703824906968e-13
9.199999999999998737e-07	1.353727514818789945e+00	-9.293051672663903392e-09	9.597990463893912266e-13	1.363648576943180979e+00	-2.501759568837096349e-09	9.256165100705588826e-13
9.399999999999998939e-07	1.350424334900067080e+00	-2.493177205469678328e-08	9.828960001819873032e-13	1.360744015724375977e+00	-6.468809422677345435e-09	9.419769964755385828e-13
9.599999999999999142e-07	1.347135780503776026e+00	-6.399968248699366720e-08	1.006693033863637046e-12	1.357850870713777969e+00	-1.575019660410548785e-08	9.585233604736479809e-13
9.799999999999999345e-07	1.343863095713476064e+00	-1.589787696416918514e-07	1.031213162293696403e-12	1.354969485865263001e+00	-3.811615949182577955e-08	9.752603486809833958e-13
9.999999999999999547e-07	1.340607539087036004e+00	-3.822376833178595155e-07	1.056482197472636896e-12	1.352100239686456096e+00	-8.959422272556908376e-08	9.921946623305464187e-13
1.019999999999999975e-06	1.337370374948696039e+00	-8.919453453550107168e-07	1.082528950413055580e-12	1.349243539327318997e+00	-2.031553856347842142e-07	1.009334981427870842e-12
1.039999999999999995e-06	1.334152865766000007e+00	-2.021617738244630335e-06	1.109385419016967658e-12	1.346399815588217974e+00	-4.489461270686520067e-07	1.026691976819941205e-12
1.060000000000000016e-06	1.330956265422901019e+00	-4.457523733481902987e-06	1.137086962621601627e-12	1.343569518663132900e+00	-9.667931984526271933e-07	1.044278312815126232e-12
1.080000000000000036e-06	1.327781813241700970e+00	-9.572036563438638310e-06	1.165672464315096825e-12	1.340753114472194918e+00	-2.031032892140274590e-06	1.062108642920700777e-12
1.100000000000000056e-06	1.324630728640314059e+00	-2.004147109106779709e-05	1.195184482480762684e-12	1.337951081469072934e+00	-4.167617418964984823e-06	1.080199601132653559e-12
1.120000000000000076e-06	1.321504206338065091e+00	-4.095787886749674433e-05	1.225669393320731653e-12	1.335163907833232022e+00	-8.361484376544565508e-06	1.098569791046786799e-12
1.140000000000000097e-06	1.318403412044778955e+00	-8.178466619449095872e-05	1.257177526331675853e-12	1.332392088976984024e+00	-1.641703022630905422e-05	1.117239774860684150e-12
1.160000000000000117e-06	1.315329478584404077e+00	-1.597157200560910310e-04	1.289763294866837041e-12	1.329636125312579908e+00	-3.157439120764490506e-05	1.136232064130658416e-12
1.180000000000000137e-06	1.312283502417249004e+00	-3.053189883753127526e-04	1.323485324025629479e-12	1.326896520236924060e+00	-5.953561434487630643e-05	1.155571113936719554e-12
1.200000000000000157e-06	1.309266540534435919e+00	-5.718146159470987970e-04	1.358406578174298236e-12	1.324173778300955062e+00	-1.101453678964570560e-04	1.175283321904812041e-12
1.220000000000000178e-06	1.306279607704986967e+00	-1.050019478938558643e-03	1.394594490426207340e-12	1.321468403538111014e+00	-2.000940837702856832e-04	1.195397033344247068e-12
1.240000000000000198e-06	1.303323674060741899e+00	-1.891928879128310917e-03	1.432121096406205574e-12	1.318780897932025020e+00	-3.571837971760185681e-04	1.215942553583795572e-12
1.260000000000000218e-06	1.300399663007254958e+00	-3.347222507326524498e-03	1.471063174599162340e-12	1.316111760007824927e+00	-6.269479690956017122e-04	1.236952168435521254e-12
1.280000000000000239e-06	1.297508449450571089e+00	-5.818704092136047987e-03	1.511502395541264403e-12	1.313461483534835050e+00	-1.082752683399442048e-03	1.258460173581865656e-12
1.300000000000000259e-06	1.294650858330335996e+00	-9.944972705613239553e-03	1.553525482063278245e-12	1.310830556330798036e+00	-1.840968821733151260e-03	1.280502913569581197e-12
1.320000000000000279e-06	1.291827663449601094e+00	-1.672151309449795148e-02	1.597224382736494087e-12	1.308219459159607023e+00	-3.083397577955726554e-03	1.303118831004282058e-12
1.340000000000000299e-06	1.289039586591046005e+00	-2.767499136240376620e-02	1.642696460610203741e-12	1.305628664715879905e+00	-5.089930653181451090e-03	1.326348526468567144e-12
1.360000000000000320e-06	1.286287296908334099e+00	-4.510990626506855561e-02	1.690044699257934599e-12	1.303058636690695993e+00	-8.285416043342274522e-03	1.350234829635759413e-12
1.380000000000000340e-06	1.283571410579962935e+00	-7.245182990708021187e-02	1.739377928080659930e-12	1.300509828913360089e+00	-1.330595894672548067e-02	1.374822882017237321e-12
1.400000000000000360e-06	1.280892490711845078e+00	-1.147174572662445768e-01	1.790811068708610203e-12	1.297982684564777056e+00	-2.109141977417661185e-02	1.400160231761352206e-12
1.420000000000000380e-06	1.278251047473266011e+00	-1.791477984379280242e-01	1.844465404251275256e-12	1.295477635458115007e+00	-3.301273277192121047e-02	1.426296940916662998e-12
1.440000000000000401e-06	1.275647538449836027e+00	-2.760481475931432227e-01	1.900468872987221209e-12	1.292995101382838019e+00	-5.104484473721966620e-02	1.453285705575447646e-12
1.460000000000000421e-06	1.273082369195573049e+00	-4.198848232806442482e-01	1.958956387902414381e-12	1.290535489508179978e+00	-7.799861089974886863e-02	1.481181989325543276e-12
1.480000000000000441e-06	1.270555893965436001e+00	-6.306954135039334330e-01	2.020070183235763987e-12	1.288099193842360934e+00	-1.178278307626644955e-01	1.510044170456171771e-12
1.500000000000000462e-06	1.268068416608528093e+00	-9.358745612615571030e-01	2.083960188857992716e-12	1.285686594743723044e+00	-1.760307572078775307e-01	1.539933703381482434e-12
1.520000000000000482e-06	1.265620191601515954e+00	-1.372401096662006825e+00	2.150784432876311182e-12	1.283298058480119019e+00	-2.601687695123552357e-01	1.570915294763506523e-12
1.540000000000000502e-06	1.263211425201189897e+00	-1.989573559379032908e+00	2.220709472293546457e-12	1.280933936832711950e+00	-3.805283814692186350e-01	1.603057094828061883e-12
1.560000000000000522e-06	1.260842276694629005e+00	-2.852319113472889356e+00	2.293910850833312930e-12	1.278594566740383964e+00	-5.509562100194919099e-01	1.636430904369273453e-12
1.580000000000000543e-06	1.258512859725279931e+00	-4.045134615701572400e+00	2.370573582148736090e-12	1.276280269980786031e+00	-7.898997579594818630e-01	1.671112397925518777e-12
1.600000000000000563e-06	1.256223243673173062e+00	-5.676707450192931326e+00	2.450892655527370886e-12	1.273991352884007000e+00	-1.121689665251268009e+00	1.707181363576108441e-12
1.620000000000000583e-06	1.253973455067701082e+00	-7.885246979018845082e+00	2.535073559885062826e-12	1.271728106074637044e+00	-1.578101145345466971e+00	1.744721959747990078e-12
1.640000000000000603e-06	1.251763479011922087e+00	-1.084453471587020879e+01	2.623332820273531082e-12	1.269490804237908055e+00	-2.200233384463201158e+00	1.783822989327356351e-12
1.660000000000000624e-06	1.249593260597930966e+00	-1.477067244374903865e+01	2.715898539324821554e-12	1.267279705905274056e+00	-3.040745365417064860e+00	1.824578191234970125e-12
1.680000000000000644e-06	1.247462706294139023e+00	-1.992947279495856705e+01	2.813010934007509039e-12	1.265095053254783997e+00	-4.166484575901185039e+00	1.867086549440102831e-12
1.700000000000000664e-06	1.245371685287532948e+00	-2.664449230657277212e+01	2.914922843183117222e-12	1.262937071920827936e+00	-5.661500785933567315e+00	1.911452619414644061e-12
1.720000000000000684e-06	1.243320030758743977e+00	-3.530499437509779170e+01	3.021900265712420964e-12	1.260805970810574994e+00	-7.630717829140901465e+00	1.957786869796393059e-12
1.740000000000000705e-06	1.241307541092677047e+00	-4.637509554125859523e+01	3.134222731224504934e-12	1.258701941915655098e+00	-1.020364861425382941e+01	2.006206042458320849e-12
1.760000000000000725e-06	1.239333980990728890e+00	-6.040194104066791425e+01	3.252183720606486835e-12	1.256625160122063933e+00	-1.353901972278002752e+01	2.056833523996353901e-12
1.780000000000000745e-06	1.237399082494897939e+00	-7.802408482646481502e+01	3.376090940299031510e-12	1.254575783006460998e+00	-1.782963559961444489e+01	2.109799730801754747e-12
1.800000000000000766e-06	1.235502545912110062e+00	-9.997918172953602323e+01	3.506266494763981217e-12	1.252553950616156042e+00	-2.330772481359262116e+01	2.165242503459249531e-12
1.820000000000000786e-06	1.233644040639930051e+00	-1.271107516460147480e+02	3.643046919885172458e-12	1.250559785227219001e+00	-3.025067483510371247e+01	2.223307507375330876e-12
1.840000000000000806e-06	1.231823205897679907e+00	-1.603736622012281998e+02	3.786783049983423965e-12	1.248593391075945025e+00	-3.898708522810742494e+01	2.284148635453433730e-12
1.860000000000000826e-06	1.230039651371509946e+00	-2.008379755970953511e+02	3.937839690500152913e-12	1.246654854059527029e+00	-4.990304503705591799e+01	2.347928407725686337e-12
1.880000000000000847e-06	1.228292957786313089e+00	-2.496908218315236638e+02	4.096595068677859100e-12	1.244744241402560903e+00	-6.344851522289867773e+01	2.414818361876567409e-12
1.900000000000000867e-06	1.226582677421585998e+00	-3.082359955592561960e+02	4.263440035876712855e-12	1.242861601286981976e+00	-8.014367227572648744e+01	2.484999427569105534e-12
1.920000000000001099e-06	1.224908334592224923e+00	-3.778910279156070260e+02	4.438776997655251217e-12	1.241006962444398898e+00	-1.005850457971477709e+02	2.558662276429709821e-12
1.940000000000000907e-06	1.223269426108350100e+00	-4.601819345737101798e+02	4.623018544005514387e-12	1.239180333701793923e+00	-1.254514867153498585e+02	2.636007635714478184e-12
1.960000000000000716e-06	1.221665421799478013e+00	-5.567334254173185855e+02	4.816585806461028779e-12	1.237381703537443922e+00	-1.555085250494329046e+02	2.717246571586324567e-12
1.980000000000000948e-06	1.220095764988671894e+00	-6.692595900019683768e+02	5.019906436311413885e-12	1.235611039519558085e+00	-1.916137587016649775e+02	2.802600692204011138e-12
2.000000000000001180e-06	1.218559873128959969e+00	-7.995488781757194374e+02	5.233412323043307231e-12	1.233868287803127073e+00	-2.347195173376555886e+02	2.892302308221007441e-12
2.020000000000000989e-06	1.217057138495470037e+00	-9.494480787841253004e+02	5.457536976077938778e-12	1.232153372571159977e+00	-2.858750613575260786e+02	2.986594502658705378e-12
2.040000000000000797e-06	1.215586929010088024e+00	-1.120843929831090918e+03	5.692712617643712151e-12	1.230466195478306046e+00	-3.462271877840129264e+02	3.085731110995167681e-12
2.060000000000001029e-06	1.214148589211669016e+00	-1.315643056268386317e+03	5.939367007822220387e-12	1.228806635102277944e+00	-4.170192102759523323e+02	3.189976596461158731e-12
2.080000000000001261e-06	1.212741441388498931e+00	-1.535750739101025374e+03	6.197920037278271501e-12	1.227174546418029921e+00	-4.995881681596847557e+02	3.299605808036885531e-12
2.100000000000001070e-06	1.211364786884082889e+00	-1.783049074794445232e+03	6.468780132319971555e-12	1.225569760311439049e+00	-5.953601615546417634e+02	3.414903609363937755e-12
2.120000000000000878e-06	1.210017907581145913e+00	-2.059375113976722787e+03	6.752340525226122204e-12	1.223992083150531096e+00	-7.058437600709996786e+02	3.536164367936101177e-12
2.140000000000001110e-06	1.208700067562016089e+00	-2.366499571238574390e+03	7.048975449814603216e-12	1.222441296433109059e+00	-8.326214895517806553e+02	3.663691295535671555e-12
2.160000000000001342e-06	1.207410514936992030e+00	-2.706106673528231568e+03	7.359036327635185398e-12	1.220917156529883973e+00	-9.773394626955883950e+02	3.797795632927214044e-12
2.180000000000001151e-06	1.206148483825979056e+00	-3.079775664958317520e+03	7.682848013676974804e-12	1.219419394541743973e+00	-1.141695282477202227e+03	3.938795674304661058e-12
2.200000000000000959e-06	1.204913196472984005e+00	-inf	8.020705171857399592e-12	1.217947716288632964e+00	-1.327424409133249128e+03	4.087015629854548517e-12
2.220000000000001191e-06	1.203703865468304102e+00	-inf	8.372868849732787733e-12	1.216501802445622005e+00	-1.536285238967327587e+03	4.242784327997468577e-12
2.240000000000001423e-06	1.202519696049610065e+00	-inf	8.739563318821800397e-12	1.215081308839198959e+00	-1.770043193346682983e+03	4.406433762312019154e-12
2.260000000000001232e-06	1.201359888450644897e+00	-inf	9.120973241807693199e-12	1.213685866913585931e+00	-2.030454156257927480e+03	4.578297491734228659e-12
2.280000000000001040e-06	1.200223640265190017e+00	-inf	9.517241220861060690e-12	1.212315084373259966e+00	-2.319247626438927000e+03	4.758708906244543355e-12
2.300000000000001272e-06	1.199110148793943065e+00	-inf	9.928465772751167723e-12	1.210968546003660995e+00	-2.638109963817169046e+03	4.947999373785711748e-12
2.320000000000001504e-06	1.198018613343343031e+00	-inf	1.035469976657829785e-11	1.209645814667988928e+00	-2.988668108997533182e+03	5.146496287467791059e-12
2.340000000000001313e-06	1.196948237447476027e+00	-inf	1.079594934933572740e-11	1.208346432473512033e+00	-inf	5.354521035096986079e-12
2.360000000000001121e-06	1.195898230987348931e+00	-inf	1.125217337344980702e-11	1.207069922096817960e+00	-inf	5.572386915598611388e-12
2.380000000000001353e-06	1.194867812185425038e+00	-inf	1.172328332939022758e-11	1.205815788253560950e+00	-inf	5.800397028898590379e-12
2.400000000000001585e-06	1.193856209457293982e+00	-inf	1.220914377575522395e-11	1.204583519294982974e+00	-inf	6.038842167204786210e-12
2.420000000000001394e-06	1.192862663106593057e+00	-inf	1.270957324926075720e-11	1.203372588910744057e+00	-inf	6.287998736353011030e-12
2.440000000000001202e-06	1.191886426853409064e+00	-inf	1.322434562806882976e-11	1.202182457915617952e+00	-inf	6.548126735900389431e-12
2.460000000000001435e-06	1.190926769190393975e+00	-inf	1.375319191411200354e-11	1.201012576096291973e+00	-inf	6.819467826008276801e-12
2.480000000000001667e-06	1.189982974564534945e+00	-inf	1.429580239363440929e-11	1.199862384094060097e+00	-inf	7.102243507829270393e-12
2.500000000000001475e-06	1.189054344385777950e+00	-inf	1.485182913019735435e-11	1.198731315299297995e+00	-inf	7.396653442214159621e-12
