# 2022-03-02_08.11.22
# shape = sech2
# FWHM_ps = 0.2
# carrier_nm = 1542
# frep_MHz = 100
# pow_mW = 50
# GDD = 0.0
# propa_len = 0.005
# untap_len = 0.0
# taper_len = 0.0
# waist_len = 0.0
# uptap_len = 0.0
# untap_scale = 1.2
# waist_scale = 0.0
# workingDir = SiN_Waveguide
# axis = slow
# window_ps = 10.0
# steps = 200
# points = 13000
# 
# wavelength [nm]	 power spectral density [dB]
750.010021	-29.377611
750.197703	-29.371747
750.385479	-29.368050
750.573348	-29.364347
750.761312	-29.360638
750.949370	-29.356924
751.137523	-29.353205
751.325769	-29.349480
751.514110	-29.345749
751.702545	-29.342013
751.891075	-29.338271
752.079700	-29.334523
752.268419	-29.330771
752.457233	-29.327012
752.646142	-29.323248
752.835145	-29.319479
753.024244	-29.315704
753.213437	-29.311924
753.402726	-29.308138
753.592110	-29.304347
753.781589	-29.300551
753.971163	-29.296749
754.160833	-29.292942
754.350598	-29.289129
754.540459	-29.285311
754.730415	-29.281488
754.920467	-29.277659
755.110615	-29.273824
755.300858	-29.269985
755.491198	-29.266140
755.681633	-29.262289
755.872164	-29.258433
756.062792	-29.254572
756.253515	-29.250705
756.444335	-29.246832
756.635252	-29.242955
756.826264	-29.239071
757.017373	-29.235183
757.208579	-29.231288
757.399881	-29.227389
757.591280	-29.223483
757.782776	-29.219573
757.974368	-29.215656
758.166058	-29.211735
758.357844	-29.207807
758.549728	-29.203875
758.741708	-29.199936
758.933786	-29.195993
759.125961	-29.192043
759.318233	-29.188089
759.510603	-29.184128
759.703071	-29.180163
759.895635	-29.176191
760.088298	-29.172215
760.281058	-29.168233
760.473916	-29.164245
760.666872	-29.160252
760.859926	-29.156254
761.053078	-29.152250
761.246328	-29.148241
761.439676	-29.144226
761.633122	-29.140206
761.826667	-29.136181
762.020310	-29.132150
762.214052	-29.128114
762.407892	-29.124072
762.601831	-29.120026
762.795868	-29.115973
762.990004	-29.111916
763.184239	-29.107852
763.378573	-29.103784
763.573006	-29.099710
763.767538	-29.095631
763.962169	-29.091546
764.156900	-29.087455
764.351729	-29.083360
764.546658	-29.079258
764.741687	-29.075151
764.936815	-29.071039
765.132042	-29.066921
765.327370	-29.062797
765.522797	-29.058668
765.718324	-29.054534
765.913950	-29.050393
766.109677	-29.046247
766.305504	-29.042096
766.501431	-29.037939
766.697458	-29.033776
766.893586	-29.029607
767.089814	-29.025433
767.286142	-29.021253
767.482571	-29.017068
767.679100	-29.012877
767.875730	-29.008680
768.072461	-29.004477
768.269293	-29.000269
768.466225	-28.996056
768.663259	-28.991836
768.860393	-28.987611
769.057629	-28.983381
769.254966	-28.979144
769.452404	-28.974902
769.649944	-28.970654
769.847585	-28.966401
770.045328	-28.962142
770.243172	-28.957877
770.441118	-28.953607
770.639166	-28.949331
770.837315	-28.945049
771.035567	-28.940762
771.233920	-28.936468
771.432376	-28.932169
771.630934	-28.927865
771.829594	-28.923554
772.028356	-28.919238
772.227220	-28.914916
772.426188	-28.910588
772.625257	-28.906254
772.824430	-28.901914
773.023705	-28.897569
773.223083	-28.893217
773.422563	-28.888860
773.622147	-28.884497
773.821834	-28.880128
774.021624	-28.875753
774.221517	-28.871372
774.421513	-28.866985
774.621613	-28.862592
774.821816	-28.858194
775.022122	-28.853789
775.222532	-28.849378
775.423046	-28.844961
775.623664	-28.840538
775.824385	-28.836109
776.025211	-28.831674
776.226140	-28.827233
776.427173	-28.822785
776.628311	-28.818332
776.829553	-28.813873
777.030899	-28.809407
777.232350	-28.804935
777.433905	-28.800457
777.635564	-28.795973
777.837328	-28.791483
778.039197	-28.786986
778.241171	-28.782484
778.443250	-28.777975
778.645433	-28.773459
778.847722	-28.768938
779.050116	-28.764410
779.252615	-28.759876
779.455219	-28.755336
779.657929	-28.750790
779.860744	-28.746237
780.063665	-28.741677
780.266691	-28.737112
780.469823	-28.732540
780.673061	-28.727962
780.876405	-28.723377
781.079855	-28.718786
781.283410	-28.714189
781.487072	-28.709585
781.690840	-28.704975
781.894715	-28.700358
782.098695	-28.695735
782.302783	-28.691105
782.506976	-28.686469
782.711277	-28.681827
782.915684	-28.677178
783.120198	-28.672522
783.324818	-28.667860
783.529546	-28.663191
783.734381	-28.658516
783.939322	-28.653835
784.144372	-28.649146
784.349528	-28.644452
784.554792	-28.639750
784.760163	-28.635042
784.965642	-28.630328
785.171228	-28.625606
785.376922	-28.620879
785.582724	-28.616144
785.788634	-28.611403
785.994651	-28.606655
786.200777	-28.601901
786.407011	-28.597139
786.613353	-28.592372
786.819804	-28.587597
787.026363	-28.582816
787.233030	-28.578028
787.439806	-28.573233
787.646691	-28.568431
787.853684	-28.563623
788.060786	-28.558808
788.267997	-28.553986
788.475317	-28.549157
788.682746	-28.544321
788.890285	-28.539479
789.097932	-28.534630
789.305689	-28.529774
789.513555	-28.524911
789.721531	-28.520041
789.929617	-28.515164
790.137812	-28.510280
790.346117	-28.505390
790.554531	-28.500492
790.763056	-28.495588
790.971691	-28.490676
791.180436	-28.485758
791.389291	-28.480833
791.598256	-28.475901
791.807332	-28.470961
792.016518	-28.466015
792.225815	-28.461062
792.435222	-28.456102
792.644740	-28.451135
792.854369	-28.446161
793.064109	-28.441180
793.273960	-28.436192
793.483922	-28.431196
793.693995	-28.426194
793.904180	-28.421185
794.114475	-28.416169
794.324882	-28.411146
794.535401	-28.406116
794.746031	-28.401079
794.956774	-28.396035
795.167627	-28.390984
795.378593	-28.385926
795.589671	-28.380860
795.800861	-28.375788
796.012162	-28.370709
796.223577	-28.365623
796.435103	-28.360530
796.646742	-28.355430
796.858493	-28.350323
797.070357	-28.345209
797.282334	-28.340088
797.494423	-28.334960
797.706626	-28.329825
797.918941	-28.324684
798.131369	-28.319535
798.343911	-28.314379
798.556566	-28.309217
798.769334	-28.304047
798.982215	-28.298871
799.195210	-28.293688
799.408319	-28.288497
799.621541	-28.283300
799.834877	-28.278096
800.048327	-28.272886
800.261890	-28.267668
800.475568	-28.262443
800.689360	-28.257212
800.903266	-28.251974
801.117287	-28.246729
801.331422	-28.241477
801.545671	-28.236218
801.760036	-28.230953
801.974514	-28.225681
802.189108	-28.220402
802.403816	-28.215116
802.618640	-28.209823
802.833578	-28.204524
803.048632	-28.199218
803.263800	-28.193905
803.479085	-28.188586
803.694484	-28.183260
803.909999	-28.177927
804.125630	-28.172588
804.341376	-28.167241
804.557239	-28.161889
804.773217	-28.156529
804.989311	-28.151163
805.205521	-28.145790
805.421847	-28.140411
805.638290	-28.135025
805.854849	-28.129633
806.071524	-28.124233
806.288316	-28.118828
806.505225	-28.113416
806.722250	-28.107997
806.939393	-28.102572
807.156652	-28.097140
807.374028	-28.091702
807.591521	-28.086257
807.809132	-28.080806
808.026859	-28.075349
808.244705	-28.069885
808.462667	-28.064415
808.680748	-28.058938
808.898946	-28.053456
809.117261	-28.047966
809.335695	-28.042471
809.554246	-28.036969
809.772916	-28.031461
809.991704	-28.025947
810.210610	-28.020427
810.429634	-28.014900
810.648777	-28.009367
810.868039	-28.003828
811.087419	-27.998283
811.306918	-27.992732
811.526535	-27.987175
811.746272	-27.981612
811.966127	-27.976043
812.186102	-27.970468
812.406196	-27.964887
812.626409	-27.959300
812.846742	-27.953708
813.067194	-27.948109
813.287766	-27.942505
813.508457	-27.936895
813.729269	-27.931279
813.950200	-27.925657
814.171251	-27.920030
814.392422	-27.914397
814.613714	-27.908758
814.835126	-27.903114
815.056658	-27.897464
815.278311	-27.891809
815.500084	-27.886148
815.721978	-27.880481
815.943993	-27.874810
816.166128	-27.869133
816.388385	-27.863450
816.610762	-27.857762
816.833261	-27.852069
817.055881	-27.846371
817.278623	-27.840667
817.501486	-27.834958
817.724471	-27.829244
817.947577	-27.823525
818.170805	-27.817801
818.394155	-27.812071
818.617627	-27.806337
818.841221	-27.800598
819.064937	-27.794854
819.288775	-27.789105
819.512736	-27.783351
819.736819	-27.777592
819.961025	-27.771829
820.185354	-27.766061
820.409805	-27.760288
820.634379	-27.754510
820.859076	-27.748728
821.083897	-27.742942
821.308840	-27.737150
821.533907	-27.731355
821.759097	-27.725555
821.984411	-27.719750
822.209848	-27.713942
822.435409	-27.708129
822.661093	-27.702311
822.886902	-27.696490
823.112834	-27.690664
823.338891	-27.684834
823.565072	-27.679000
823.791377	-27.673163
824.017807	-27.667321
824.244361	-27.661475
824.471039	-27.655625
824.697843	-27.649772
824.924771	-27.643914
825.151824	-27.638053
825.379002	-27.632188
825.606306	-27.626320
825.833734	-27.620448
826.061288	-27.614572
826.288967	-27.608693
826.516772	-27.602810
826.744703	-27.596924
826.972759	-27.591034
827.200941	-27.585141
827.429249	-27.579244
827.657683	-27.573345
827.886243	-27.567442
828.114930	-27.561536
828.343743	-27.555627
828.572682	-27.549714
828.801748	-27.543799
829.030941	-27.537880
829.260260	-27.531959
829.489706	-27.526034
829.719280	-27.520107
829.948980	-27.514176
830.178808	-27.508243
830.408763	-27.502308
830.638845	-27.496369
830.869055	-27.490428
831.099393	-27.484484
831.329858	-27.478537
831.560451	-27.472588
831.791173	-27.466636
832.022022	-27.460682
832.252999	-27.454725
832.484105	-27.448766
832.715339	-27.442805
832.946702	-27.436841
833.178193	-27.430875
833.409813	-27.424906
833.641561	-27.418936
833.873439	-27.412963
834.105445	-27.406989
834.337581	-27.401012
834.569846	-27.395033
834.802241	-27.389052
835.034764	-27.383069
835.267418	-27.377084
835.500201	-27.371098
835.733114	-27.365109
835.966157	-27.359119
836.199329	-27.353127
836.432632	-27.347133
836.666065	-27.341138
836.899629	-27.335141
837.133323	-27.329142
837.367147	-27.323142
837.601102	-27.317140
837.835188	-27.311137
838.069405	-27.305132
838.303752	-27.299126
838.538231	-27.293119
838.772841	-27.287110
839.007582	-27.281101
839.242455	-27.275089
839.477459	-27.269077
839.712595	-27.263063
839.947863	-27.257049
840.183263	-27.251033
840.418794	-27.245016
840.654458	-27.238999
840.890254	-27.232980
841.126182	-27.226960
841.362242	-27.220940
841.598435	-27.214918
841.834761	-27.208896
842.071220	-27.202873
842.307811	-27.196849
842.544536	-27.190824
842.781393	-27.184798
843.018384	-27.178772
843.255508	-27.172745
843.492765	-27.166718
843.730156	-27.160689
843.967681	-27.154660
844.205339	-27.148631
844.443132	-27.142601
844.681058	-27.136570
844.919118	-27.130538
845.157313	-27.124507
845.395642	-27.118474
845.634105	-27.112441
845.872703	-27.106408
846.111436	-27.100374
846.350303	-27.094339
846.589306	-27.088304
846.828443	-27.082269
847.067716	-27.076233
847.307124	-27.070196
847.546667	-27.064160
847.786345	-27.058122
848.026160	-27.052085
848.266110	-27.046047
848.506195	-27.040009
848.746417	-27.033970
848.986775	-27.027932
849.227269	-27.021892
849.467899	-27.015853
849.708666	-27.009813
849.949569	-27.003774
850.190609	-26.997733
850.431785	-26.991693
850.673099	-26.985653
850.914549	-26.979612
851.156137	-26.973571
851.397861	-26.967530
851.639723	-26.961489
851.881723	-26.955448
852.123860	-26.949407
852.366135	-26.943366
852.608547	-26.937325
852.851098	-26.931283
853.093786	-26.925242
853.336613	-26.919200
853.579578	-26.913159
853.822681	-26.907117
854.065923	-26.901075
854.309304	-26.895034
854.552823	-26.888992
854.796481	-26.882950
855.040278	-26.876908
855.284215	-26.870866
855.528290	-26.864824
855.772505	-26.858782
856.016859	-26.852740
856.261353	-26.846697
856.505987	-26.840655
856.750760	-26.834612
856.995673	-26.828570
857.240727	-26.822527
857.485920	-26.816483
857.731254	-26.810440
857.976729	-26.804396
858.222343	-26.798352
858.468099	-26.792308
858.713995	-26.786264
858.960032	-26.780219
859.206211	-26.774173
859.452530	-26.768128
859.698991	-26.762082
859.945593	-26.756035
860.192336	-26.749988
860.439222	-26.743941
860.686248	-26.737893
860.933417	-26.731844
861.180728	-26.725795
861.428181	-26.719746
861.675776	-26.713695
861.923514	-26.707645
862.171394	-26.701593
862.419417	-26.695541
862.667582	-26.689488
862.915890	-26.683434
863.164342	-26.677379
863.412936	-26.671324
863.661674	-26.665268
863.910555	-26.659211
864.159579	-26.653153
864.408747	-26.647094
864.658059	-26.641034
864.907515	-26.634973
865.157114	-26.628911
865.406858	-26.622848
865.656746	-26.616784
865.906778	-26.610719
866.156955	-26.604653
866.407277	-26.598585
866.657743	-26.592516
866.908354	-26.586446
867.159110	-26.580375
867.410011	-26.574302
867.661057	-26.568228
867.912249	-26.562152
868.163586	-26.556075
868.415069	-26.549996
868.666697	-26.543916
868.918472	-26.537834
869.170392	-26.531751
869.422458	-26.525665
869.674671	-26.519578
869.927030	-26.513489
870.179536	-26.507398
870.432188	-26.501306
870.684987	-26.495211
870.937933	-26.489114
871.191026	-26.483015
871.444266	-26.476914
871.697653	-26.470810
871.951188	-26.464705
872.204870	-26.458597
872.458700	-26.452486
872.712677	-26.446373
872.966803	-26.440258
873.221076	-26.434139
873.475498	-26.428019
873.730068	-26.421895
873.984787	-26.415768
874.239654	-26.409639
874.494669	-26.403507
874.749834	-26.397372
875.005147	-26.391233
875.260610	-26.385092
875.516222	-26.378947
875.771983	-26.372799
876.027894	-26.366647
876.283954	-26.360492
876.540164	-26.354334
876.796524	-26.348172
877.053033	-26.342006
877.309693	-26.335837
877.566503	-26.329664
877.823464	-26.323487
878.080575	-26.317305
878.337837	-26.311120
878.595249	-26.304931
878.852813	-26.298738
879.110528	-26.292540
879.368393	-26.286338
879.626410	-26.280132
879.884579	-26.273921
880.142899	-26.267705
880.401371	-26.261485
880.659994	-26.255260
880.918770	-26.249031
881.177698	-26.242796
881.436778	-26.236557
881.696010	-26.230312
881.955395	-26.224063
882.214933	-26.217808
882.474623	-26.211548
882.734467	-26.205283
882.994463	-26.199012
883.254613	-26.192735
883.514916	-26.186454
883.775372	-26.180166
884.035982	-26.173873
884.296746	-26.167574
884.557664	-26.161269
884.818735	-26.154958
885.079961	-26.148641
885.341341	-26.142318
885.602876	-26.135988
885.864565	-26.129653
886.126409	-26.123311
886.388407	-26.116962
886.650561	-26.110607
886.912870	-26.104245
887.175334	-26.097877
887.437953	-26.091501
887.700728	-26.085119
887.963658	-26.078730
888.226745	-26.072334
888.489987	-26.065931
888.753385	-26.059520
889.016940	-26.053102
889.280651	-26.046677
889.544518	-26.040244
889.808543	-26.033804
890.072723	-26.027356
890.337061	-26.020901
890.601556	-26.014437
890.866208	-26.007966
891.131017	-26.001487
891.395984	-25.994999
891.661109	-25.988504
891.926391	-25.982000
892.191831	-25.975488
892.457429	-25.968968
892.723186	-25.962439
892.989100	-25.955902
893.255173	-25.949356
893.521405	-25.942801
893.787796	-25.936238
894.054345	-25.929666
894.321053	-25.923084
894.587921	-25.916494
894.854948	-25.909895
895.122134	-25.903286
895.389480	-25.896668
895.656986	-25.890041
895.924651	-25.883405
896.192477	-25.876759
896.460463	-25.870103
896.728609	-25.863438
896.996915	-25.856763
897.265382	-25.850079
897.534010	-25.843384
897.802799	-25.836680
898.071749	-25.829966
898.340860	-25.823241
898.610132	-25.816507
898.879566	-25.809762
899.149162	-25.803007
899.418919	-25.796242
899.688838	-25.789466
899.958919	-25.782680
900.229162	-25.775883
900.499568	-25.769076
900.770136	-25.762258
901.040867	-25.755430
901.311761	-25.748590
901.582817	-25.741740
901.854037	-25.734879
902.125420	-25.728007
902.396966	-25.721124
902.668676	-25.714230
902.940550	-25.707325
903.212587	-25.700409
903.484788	-25.693482
903.757153	-25.686543
904.029683	-25.679593
904.302377	-25.672632
904.575236	-25.665659
904.848259	-25.658675
905.121447	-25.651680
905.394800	-25.644673
905.668319	-25.637654
905.942002	-25.630624
906.215852	-25.623582
906.489866	-25.616529
906.764047	-25.609463
907.038393	-25.602386
907.312906	-25.595298
907.587584	-25.588197
907.862429	-25.581085
908.137441	-25.573960
908.412619	-25.566824
908.687964	-25.559676
908.963476	-25.552516
909.239155	-25.545344
909.515002	-25.538160
909.791015	-25.530964
910.067197	-25.523756
910.343546	-25.516536
910.620063	-25.509304
910.896748	-25.502060
911.173601	-25.494803
911.450623	-25.487535
911.727813	-25.480254
912.005171	-25.472962
912.282699	-25.465657
912.560395	-25.458340
912.838261	-25.451011
913.116296	-25.443670
913.394500	-25.436317
913.672874	-25.428951
913.951418	-25.421574
914.230131	-25.414184
914.509015	-25.406782
914.788068	-25.399368
915.067292	-25.391942
915.346687	-25.384504
915.626252	-25.377054
915.905988	-25.369592
916.185895	-25.362118
916.465973	-25.354631
916.746223	-25.347133
917.026644	-25.339623
917.307236	-25.332101
917.588000	-25.324567
917.868937	-25.317021
918.150045	-25.309463
918.431325	-25.301893
918.712778	-25.294312
918.994404	-25.286719
919.276202	-25.279114
919.558173	-25.271497
919.840317	-25.263869
920.122634	-25.256230
920.405125	-25.248578
920.687789	-25.240916
920.970627	-25.233241
921.253639	-25.225556
921.536824	-25.217859
921.820184	-25.210151
922.103718	-25.202431
922.387427	-25.194700
922.671310	-25.186959
922.955368	-25.179206
923.239601	-25.171442
923.524009	-25.163668
923.808592	-25.155882
924.093351	-25.148086
924.378285	-25.140279
924.663396	-25.132462
924.948682	-25.124634
925.234144	-25.116795
925.519782	-25.108946
925.805597	-25.101087
926.091589	-25.093217
926.377757	-25.085338
926.664102	-25.077448
926.950624	-25.069549
927.237323	-25.061639
927.524200	-25.053720
927.811255	-25.045791
928.098487	-25.037853
928.385897	-25.029905
928.673485	-25.021947
928.961251	-25.013981
929.249196	-25.006005
929.537319	-24.998020
929.825621	-24.990026
930.114102	-24.982024
930.402762	-24.974012
930.691601	-24.965992
930.980620	-24.957964
931.269818	-24.949927
931.559196	-24.941882
931.848753	-24.933828
932.138491	-24.925767
932.428409	-24.917697
932.718508	-24.909620
933.008787	-24.901535
933.299246	-24.893443
933.589887	-24.885343
933.880709	-24.877236
934.171712	-24.869122
934.462896	-24.861000
934.754262	-24.852872
935.045810	-24.844737
935.337539	-24.836596
935.629451	-24.828448
935.921545	-24.820293
936.213822	-24.812133
936.506281	-24.803966
936.798922	-24.795793
937.091747	-24.787615
937.384755	-24.779431
937.677946	-24.771241
937.971321	-24.763047
938.264879	-24.754847
938.558621	-24.746641
938.852547	-24.738431
939.146657	-24.730217
939.440952	-24.721997
939.735431	-24.713774
940.030095	-24.705546
940.324943	-24.697314
940.619977	-24.689077
940.915196	-24.680838
941.210600	-24.672594
941.506189	-24.664347
941.801965	-24.656097
942.097926	-24.647843
942.394074	-24.639586
942.690407	-24.631327
942.986927	-24.623065
943.283634	-24.614800
943.580527	-24.606533
943.877608	-24.598264
944.174875	-24.589993
944.472330	-24.581719
944.769972	-24.573445
945.067802	-24.565168
945.365820	-24.556891
945.664026	-24.548612
945.962420	-24.540332
946.261002	-24.532051
946.559773	-24.523769
946.858733	-24.515487
947.157881	-24.507204
947.457219	-24.498922
947.756746	-24.490639
948.056462	-24.482356
948.356368	-24.474074
948.656464	-24.465792
948.956749	-24.457511
949.257225	-24.449230
949.557891	-24.440950
949.858748	-24.432672
950.159796	-24.424395
950.461034	-24.416119
950.762463	-24.407845
951.064084	-24.399573
951.365896	-24.391302
951.667900	-24.383034
951.970095	-24.374768
952.272483	-24.366505
952.575063	-24.358244
952.877835	-24.349985
953.180799	-24.341730
953.483956	-24.333478
953.787307	-24.325229
954.090850	-24.316983
954.394586	-24.308741
954.698516	-24.300503
955.002640	-24.292268
955.306957	-24.284038
955.611469	-24.275811
955.916174	-24.267589
956.221074	-24.259372
956.526169	-24.251159
956.831458	-24.242951
957.136942	-24.234748
957.442622	-24.226549
957.748496	-24.218356
958.054567	-24.210169
958.360833	-24.201987
958.667294	-24.193810
958.973952	-24.185639
959.280806	-24.177475
959.587857	-24.169316
959.895104	-24.161163
960.202548	-24.153017
960.510189	-24.144877
960.818027	-24.136744
961.126062	-24.128617
961.434295	-24.120497
961.742726	-24.112385
962.051355	-24.104279
962.360182	-24.096180
962.669207	-24.088089
962.978431	-24.080005
963.287854	-24.071929
963.597475	-24.063860
963.907296	-24.055799
964.217315	-24.047746
964.527535	-24.039701
964.837954	-24.031664
