# 2022-02-01_15.49.49
# shape = sech2
# FWHM_ps = 0.1
# carrier_nm = 1542
# frep_MHz = 12126
# pow_mW = 5000
# GDD = 0.0
# propa_len = 0.005
# untap_len = 0.0
# taper_len = 0.0
# waist_len = 0.0
# uptap_len = 0.0
# untap_scale = 1.0
# waist_scale = 1.0
# workingDir = SiN_Waveguide
# axis = slow
# window_ps = 10.0
# steps = 200
# points = 13000
# 
# wavelength [nm]	 power spectral density [dB]
1000.248639	-224.643867
1000.582480	-224.425326
1000.916545	-224.211258
1001.250832	-223.997529
1001.585343	-223.778874
1001.920077	-223.565751
1002.255035	-223.352023
1002.590218	-223.136924
1002.925624	-222.922125
1003.261255	-222.707654
1003.597111	-222.491936
1003.933192	-222.277424
1004.269497	-222.063568
1004.606029	-221.848713
1004.942785	-221.633739
1005.279768	-221.418877
1005.616977	-221.203479
1005.954412	-220.987774
1006.292074	-220.775247
1006.629962	-220.560325
1006.968077	-220.344191
1007.306420	-220.129308
1007.644990	-219.916053
1007.983787	-219.700726
1008.322813	-219.486079
1008.662067	-219.270270
1009.001549	-219.055206
1009.341259	-218.840505
1009.681199	-218.625230
1010.021367	-218.410536
1010.361765	-218.195395
1010.702392	-217.980991
1011.043250	-217.765862
1011.384337	-217.549894
1011.725654	-217.336812
1012.067202	-217.120289
1012.408980	-216.905658
1012.750989	-216.689986
1013.093230	-216.476341
1013.435702	-216.261091
1013.778405	-216.046979
1014.121341	-215.831209
1014.464508	-215.616390
1014.807908	-215.401393
1015.151540	-215.186715
1015.495405	-214.972362
1015.839503	-214.757359
1016.183835	-214.541762
1016.528400	-214.326310
1016.873198	-214.111755
1017.218231	-213.897081
1017.563498	-213.681996
1017.908999	-213.467133
1018.254735	-213.252342
1018.600707	-213.037471
1018.946913	-212.821083
1019.293354	-212.607241
1019.640032	-212.391931
1019.986945	-212.176964
1020.334094	-211.962041
1020.681480	-211.746997
1021.029102	-211.532120
1021.376961	-211.316584
1021.725058	-211.102166
1022.073391	-210.887499
1022.421962	-210.671673
1022.770772	-210.457599
1023.119819	-210.242225
1023.469104	-210.026707
1023.818628	-209.812377
1024.168391	-209.597335
1024.518393	-209.382916
1024.868634	-209.166877
1025.219115	-208.952532
1025.569836	-208.736659
1025.920796	-208.521946
1026.271997	-208.306979
1026.623438	-208.092062
1026.975121	-207.877073
1027.327044	-207.662114
1027.679208	-207.446982
1028.031614	-207.231716
1028.384262	-207.016923
1028.737152	-206.801733
1029.090284	-206.586743
1029.443659	-206.371555
1029.797276	-206.156472
1030.151137	-205.941605
1030.505240	-205.726409
1030.859587	-205.511538
1031.214178	-205.296397
1031.569013	-205.081423
1031.924093	-204.866239
1032.279417	-204.651044
1032.634985	-204.435941
1032.990799	-204.221037
1033.346858	-204.005943
1033.703162	-203.790938
1034.059712	-203.575768
1034.416509	-203.360579
1034.773551	-203.145547
1035.130841	-202.930448
1035.488377	-202.715360
1035.846160	-202.500266
1036.204190	-202.285166
1036.562468	-202.069980
1036.920994	-201.854954
1037.279768	-201.639837
1037.638790	-201.424751
1037.998061	-201.209658
1038.357581	-200.994482
1038.717350	-200.779493
1039.077368	-200.564329
1039.437636	-200.349164
1039.798154	-200.134092
1040.158922	-199.918964
1040.519940	-199.703880
1040.881209	-199.488694
1041.242729	-199.273640
1041.604501	-199.058458
1041.966524	-198.843349
1042.328798	-198.628142
1042.691325	-198.413022
1043.054103	-198.197989
1043.417135	-197.982812
1043.780419	-197.767708
1044.143956	-197.552535
1044.507746	-197.337412
1044.871791	-197.122258
1045.236088	-196.907072
1045.600641	-196.691957
1045.965447	-196.476786
1046.330508	-196.261653
1046.695824	-196.046506
1047.061395	-195.831357
1047.427222	-195.616220
1047.793304	-195.401066
1048.159642	-195.185888
1048.526237	-194.970746
1048.893088	-194.755581
1049.260196	-194.540395
1049.627561	-194.325325
1049.995183	-194.110133
1050.363063	-193.894982
1050.731201	-193.679769
1051.099597	-193.464621
1051.468251	-193.249486
1051.837164	-193.034318
1052.206336	-192.819179
1052.575767	-192.603994
1052.945458	-192.388802
1053.315409	-192.173690
1053.685619	-191.958478
1054.056090	-191.743311
1054.426821	-191.528150
1054.797814	-191.312978
1055.169067	-191.097850
1055.540582	-190.882670
1055.912359	-190.667516
1056.284398	-190.452287
1056.656698	-190.237139
1057.029262	-190.021976
1057.402088	-189.806798
1057.775177	-189.591606
1058.148530	-189.376461
1058.522146	-189.161291
1058.896027	-188.946108
1059.270171	-188.730940
1059.644580	-188.515778
1060.019254	-188.300596
1060.394193	-188.085443
1060.769397	-187.870293
1061.144867	-187.655097
1061.520602	-187.439920
1061.896604	-187.224782
1062.272872	-187.009587
1062.649407	-186.794418
1063.026210	-186.579262
1063.403279	-186.364096
1063.780616	-186.148912
1064.158221	-185.933747
1064.536094	-185.718573
1064.914235	-185.503422
1065.292645	-185.288244
1065.671325	-185.073086
1066.050273	-184.857913
1066.429491	-184.642750
1066.808979	-184.427597
1067.188738	-184.212418
1067.568766	-183.997262
1067.949066	-183.782110
1068.329636	-183.566941
1068.710478	-183.351786
1069.091592	-183.136612
1069.472977	-182.921466
1069.854635	-182.706309
1070.236565	-182.491147
1070.618768	-182.276001
1071.001243	-182.060838
1071.383993	-181.845696
1071.767016	-181.630539
1072.150313	-181.415388
1072.533884	-181.200244
1072.917730	-180.985091
1073.301850	-180.769951
1073.686246	-180.554808
1074.070917	-180.339663
1074.455864	-180.124529
1074.841087	-179.909374
1075.226586	-179.694236
1075.612362	-179.479106
1075.998415	-179.263976
1076.384745	-179.048843
1076.771353	-178.833707
1077.158238	-178.618582
1077.545401	-178.403446
1077.932843	-178.188319
1078.320564	-177.973197
1078.708564	-177.758079
1079.096842	-177.542956
1079.485401	-177.327837
1079.874240	-177.112723
1080.263358	-176.897604
1080.652757	-176.682497
1081.042438	-176.467391
1081.432399	-176.252288
1081.822641	-176.037176
1082.213166	-175.822083
1082.603972	-175.606978
1082.995061	-175.391877
1083.386433	-175.176784
1083.778087	-174.961695
1084.170025	-174.746601
1084.562246	-174.531517
1084.954751	-174.316438
1085.347541	-174.101354
1085.740615	-173.886275
1086.133973	-173.671201
1086.527617	-173.456123
1086.921546	-173.241058
1087.315761	-173.025989
1087.710262	-172.810926
1088.105050	-172.595861
1088.500124	-172.380807
1088.895485	-172.165751
1089.291134	-171.950698
1089.687070	-171.735649
1090.083294	-171.520603
1090.479806	-171.305561
1090.876607	-171.090521
1091.273696	-170.875484
1091.671075	-170.660451
1092.068744	-170.445423
1092.466702	-170.230395
1092.864950	-170.015374
1093.263489	-169.800350
1093.662319	-169.585334
1094.061440	-169.370319
1094.460852	-169.155314
1094.860555	-168.940305
1095.260551	-168.725308
1095.660840	-168.510310
1096.061421	-168.295316
1096.462295	-168.080324
1096.863462	-167.865338
1097.264923	-167.650355
1097.666678	-167.435374
1098.068727	-167.220399
1098.471071	-167.005429
1098.873710	-166.790460
1099.276644	-166.575498
1099.679874	-166.360536
1100.083400	-166.145582
1100.487222	-165.930631
1100.891340	-165.715683
1101.295756	-165.500742
1101.700468	-165.285802
1102.105478	-165.070865
1102.510787	-164.855937
1102.916393	-164.641008
1103.322298	-164.426087
1103.728502	-164.211169
1104.135005	-163.996256
1104.541807	-163.781347
1104.948909	-163.566441
1105.356312	-163.351541
1105.764015	-163.136644
1106.172019	-162.921752
1106.580324	-162.706864
1106.988931	-162.491983
1107.397840	-162.277104
1107.807051	-162.062230
1108.216564	-161.847360
1108.626380	-161.632496
1109.036500	-161.417636
1109.446923	-161.202781
1109.857649	-160.987929
1110.268680	-160.773083
1110.680016	-160.558241
1111.091657	-160.343404
1111.503602	-160.128570
1111.915854	-159.913744
1112.328411	-159.698921
1112.741275	-159.484103
1113.154445	-159.269289
1113.567922	-159.054480
1113.981706	-158.839676
1114.395798	-158.624877
1114.810198	-158.410082
1115.224906	-158.195292
1115.639923	-157.980507
1116.055249	-157.765728
1116.470884	-157.550952
1116.886829	-157.336182
1117.303084	-157.121416
1117.719650	-156.906655
1118.136526	-156.691900
1118.553713	-156.477148
1118.971212	-156.262402
1119.389022	-156.047661
1119.807145	-155.832925
1120.225580	-155.618193
1120.644328	-155.403467
1121.063389	-155.188745
1121.482763	-154.974028
1121.902452	-154.759316
1122.322454	-154.544609
1122.742771	-154.329908
1123.163404	-154.115211
1123.584351	-153.900518
1124.005614	-153.685831
1124.427193	-153.471149
1124.849089	-153.256472
1125.271301	-153.041799
1125.693830	-152.827132
1126.116677	-152.612469
1126.539842	-152.397812
1126.963324	-152.183158
1127.387126	-151.968510
1127.811246	-151.753868
1128.235685	-151.539230
1128.660444	-151.324597
1129.085522	-151.109968
1129.510922	-150.895345
1129.936641	-150.680727
1130.362682	-150.466113
1130.789044	-150.251504
1131.215728	-150.036901
1131.642734	-149.822302
1132.070063	-149.607707
1132.497714	-149.393118
1132.925689	-149.178534
1133.353987	-148.963954
1133.782610	-148.749379
1134.211556	-148.534809
1134.640827	-148.320244
1135.070424	-148.105683
1135.500345	-147.891128
1135.930593	-147.676576
1136.361166	-147.462030
1136.792067	-147.247489
1137.223294	-147.032952
1137.654848	-146.818419
1138.086730	-146.603892
1138.518940	-146.389369
1138.951479	-146.174850
1139.384346	-145.960336
1139.817543	-145.745827
1140.251069	-145.531322
1140.684925	-145.316821
1141.119111	-145.102325
1141.553628	-144.887834
1141.988475	-144.673347
1142.423655	-144.458864
1142.859166	-144.244386
1143.295009	-144.029912
1143.731185	-143.815442
1144.167694	-143.600976
1144.604536	-143.386515
1145.041711	-143.172057
1145.479221	-142.957604
1145.917065	-142.743155
1146.355245	-142.528710
1146.793759	-142.314269
1147.232609	-142.099832
1147.671795	-141.885399
1148.111317	-141.670970
1148.551177	-141.456544
1148.991373	-141.242123
1149.431907	-141.027705
1149.872779	-140.813291
1150.313989	-140.598880
1150.755538	-140.384473
1151.197426	-140.170070
1151.639653	-139.955670
1152.082220	-139.741273
1152.525128	-139.526880
1152.968376	-139.312490
1153.411966	-139.098104
1153.855897	-138.883720
1154.300169	-138.669340
1154.744784	-138.454963
1155.189742	-138.240589
1155.635042	-138.026218
1156.080687	-137.811849
1156.526674	-137.597484
1156.973007	-137.383121
1157.419683	-137.168761
1157.866705	-136.954403
1158.314072	-136.740048
1158.761786	-136.525695
1159.209845	-136.311345
1159.658251	-136.096997
1160.107004	-135.882652
1160.556104	-135.668308
1161.005553	-135.453967
1161.455349	-135.239627
1161.905494	-135.025290
1162.355989	-134.810954
1162.806832	-134.596621
1163.258026	-134.382288
1163.709570	-134.167958
1164.161464	-133.953629
1164.613710	-133.739301
1165.066307	-133.524975
1165.519256	-133.310650
1165.972558	-133.096326
1166.426212	-132.882003
1166.880219	-132.667681
1167.334580	-132.453360
1167.789295	-132.239040
1168.244364	-132.024721
1168.699788	-131.810403
1169.155567	-131.596085
1169.611702	-131.381767
1170.068193	-131.167450
1170.525041	-130.953133
1170.982245	-130.738817
1171.439807	-130.524500
1171.897726	-130.310184
1172.356004	-130.095867
1172.814640	-129.881551
1173.273635	-129.667234
1173.732989	-129.452917
1174.192703	-129.238599
1174.652778	-129.024281
1175.113213	-128.809962
1175.574009	-128.595643
1176.035167	-128.381323
1176.496687	-128.167001
1176.958569	-127.952679
1177.420814	-127.738356
1177.883422	-127.524032
1178.346394	-127.309706
1178.809730	-127.095379
1179.273430	-126.881050
1179.737496	-126.666720
1180.201927	-126.452388
1180.666723	-126.238055
1181.131886	-126.023719
1181.597416	-125.809382
1182.063312	-125.595042
1182.529576	-125.380700
1182.996209	-125.166356
1183.463209	-124.952009
1183.930579	-124.737660
1184.398317	-124.523308
1184.866426	-124.308954
1185.334904	-124.094597
1185.803754	-123.880236
1186.272974	-123.665873
1186.742566	-123.451506
1187.212529	-123.237137
1187.682865	-123.022763
1188.153574	-122.808387
1188.624656	-122.594006
1189.096112	-122.379623
1189.567942	-122.165235
1190.040147	-121.950843
1190.512726	-121.736448
1190.985681	-121.522048
1191.459012	-121.307644
1191.932720	-121.093236
1192.406804	-120.878824
1192.881265	-120.664407
1193.356104	-120.449985
1193.831322	-120.235559
1194.306918	-120.021128
1194.782893	-119.806692
1195.259248	-119.592251
1195.735982	-119.377805
1196.213097	-119.163354
1196.690593	-118.948898
1197.168471	-118.734436
1197.646730	-118.519969
1198.125371	-118.305496
1198.604395	-118.091018
1199.083803	-117.876533
1199.563594	-117.662043
1200.043769	-117.447547
1200.524329	-117.233044
1201.005273	-117.018536
1201.486604	-116.804021
1201.968320	-116.589499
1202.450422	-116.374971
1202.932912	-116.160436
1203.415789	-115.945895
1203.899054	-115.731346
1204.382707	-115.516790
1204.866748	-115.302227
1205.351179	-115.087656
1205.836000	-114.873078
1206.321211	-114.658492
1206.806812	-114.443898
1207.292805	-114.229297
1207.779189	-114.014687
1208.265965	-113.800068
1208.753134	-113.585442
1209.240696	-113.370806
1209.728651	-113.156162
1210.217000	-112.941509
1210.705744	-112.726847
1211.194883	-112.512176
1211.684417	-112.297496
1212.174347	-112.082805
1212.664673	-111.868106
1213.155396	-111.653396
1213.646516	-111.438677
1214.138034	-111.223948
1214.629951	-111.009208
1215.122266	-110.794458
1215.614980	-110.579698
1216.108095	-110.364927
1216.601609	-110.150146
1217.095524	-109.935354
1217.589841	-109.720551
1218.084559	-109.505737
1218.579679	-109.290912
1219.075202	-109.076077
1219.571128	-108.861230
1220.067458	-108.646371
1220.564191	-108.431502
1221.061330	-108.216621
1221.558874	-108.001728
1222.056823	-107.786824
1222.555178	-107.571908
1223.053940	-107.356981
1223.553109	-107.142042
1224.052686	-106.927091
1224.552671	-106.712127
1225.053065	-106.497152
1225.553867	-106.282165
1226.055079	-106.067165
1226.556702	-105.852153
1227.058735	-105.637129
1227.561179	-105.422092
1228.064035	-105.207042
1228.567303	-104.991980
1229.070983	-104.776904
1229.575077	-104.561816
1230.079585	-104.346714
1230.584506	-104.131598
1231.089842	-103.916469
1231.595594	-103.701326
1232.101761	-103.486169
1232.608345	-103.270998
1233.115345	-103.055813
1233.622762	-102.840613
1234.130597	-102.625398
1234.638851	-102.410168
1235.147523	-102.194923
1235.656615	-101.979663
1236.166126	-101.764387
1236.676058	-101.549095
1237.186411	-101.333787
1237.697185	-101.118463
1238.208381	-100.903122
1238.719999	-100.687765
1239.232040	-100.472392
1239.744505	-100.257001
1240.257394	-100.041593
1240.770708	-99.826169
1241.284446	-99.610726
1241.798610	-99.395267
1242.313201	-99.179790
1242.828218	-98.964295
1243.343662	-98.748782
1243.859534	-98.533252
1244.375834	-98.317703
1244.892563	-98.102137
1245.409721	-97.886553
1245.927309	-97.670950
1246.445327	-97.455330
1246.963777	-97.239691
1247.482657	-97.024035
1248.001970	-96.808360
1248.521716	-96.592666
1249.041894	-96.376955
1249.562506	-96.161225
1250.083553	-95.945477
1250.605034	-95.729710
1251.126950	-95.513925
1251.649302	-95.298120
1252.172091	-95.082297
1252.695316	-94.866455
1253.218979	-94.650594
1253.743079	-94.434713
1254.267619	-94.218812
1254.792597	-94.002891
1255.318015	-93.786950
1255.843874	-93.570989
1256.370173	-93.355006
1256.896913	-93.139001
1257.424095	-92.922974
1257.951720	-92.706925
1258.479787	-92.490853
1259.008298	-92.274757
1259.537254	-92.058637
1260.066654	-91.842492
1260.596499	-91.626321
1261.126790	-91.410124
1261.657527	-91.193899
1262.188711	-90.977647
1262.720342	-90.761366
1263.252422	-90.545056
1263.784950	-90.328715
1264.317928	-90.112344
1264.851355	-89.895940
1265.385232	-89.679504
1265.919560	-89.463034
1266.454340	-89.246530
1266.989572	-89.029991
1267.525256	-88.813416
1268.061394	-88.596805
1268.597985	-88.380156
1269.135031	-88.163469
1269.672531	-87.946744
1270.210487	-87.729979
1270.748899	-87.513175
1271.287768	-87.296331
1271.827094	-87.079447
1272.366877	-86.862521
1272.907119	-86.645555
1273.447820	-86.428547
1273.988981	-86.211497
1274.530601	-85.994406
1275.072683	-85.777274
1275.615226	-85.560100
1276.158230	-85.342884
1276.701697	-85.125628
1277.245627	-84.908330
1277.790021	-84.690993
1278.334879	-84.473615
1278.880202	-84.256197
1279.425991	-84.038741
1279.972245	-83.821246
1280.518966	-83.603714
1281.066155	-83.386144
1281.613811	-83.168539
1282.161936	-82.950898
1282.710529	-82.733222
1283.259593	-82.515513
1283.809126	-82.297771
1284.359131	-82.079997
1284.909607	-81.862192
1285.460555	-81.644357
1286.011976	-81.426494
1286.563870	-81.208602
1287.116237	-80.990682
1287.669080	-80.772737
1288.222397	-80.554766
1288.776191	-80.336770
1289.330460	-80.118751
1289.885207	-79.900708
1290.440431	-79.682643
1290.996133	-79.464556
1291.552314	-79.246448
1292.108975	-79.028319
1292.666115	-78.810170
1293.223737	-78.592000
1293.781839	-78.373811
1294.340424	-78.155602
1294.899491	-77.937373
1295.459041	-77.719125
1296.019075	-77.500856
1296.579593	-77.282568
1297.140597	-77.064259
1297.702086	-76.845929
1298.264061	-76.627578
1298.826524	-76.409205
1299.389474	-76.190808
1299.952912	-75.972388
1300.516839	-75.753943
1301.081255	-75.535472
1301.646162	-75.316974
1302.211559	-75.098448
1302.777448	-74.879892
1303.343829	-74.661305
1303.910702	-74.442685
1304.478069	-74.224030
1305.045930	-74.005339
1305.614285	-73.786611
1306.183136	-73.567842
1306.752483	-73.349031
1307.322326	-73.130177
1307.892666	-72.911277
1308.463504	-72.692328
1309.034841	-72.473329
1309.606677	-72.254278
1310.179012	-72.035172
1310.751849	-71.816009
1311.325186	-71.596787
1311.899025	-71.377503
1312.473366	-71.158155
1313.048211	-70.938740
1313.623559	-70.719257
1314.199412	-70.499703
1314.775770	-70.280076
1315.352634	-70.060373
1315.930004	-69.840591
1316.507881	-69.620730
1317.086266	-69.400787
1317.665159	-69.180758
1318.244562	-68.960644
1318.824474	-68.740440
1319.404897	-68.520145
1319.985831	-68.299758
1320.567276	-68.079276
1321.149234	-67.858698
1321.731706	-67.638021
1322.314691	-67.417244
1322.898190	-67.196365
1323.482205	-66.975383
1324.066736	-66.754297
1324.651783	-66.533104
1325.237347	-66.311804
1325.823430	-66.090395
1326.410031	-65.868876
1326.997151	-65.647247
1327.584791	-65.425505
1328.172952	-65.203651
1328.761634	-64.981683
1329.350839	-64.759601
1329.940566	-64.537404
1330.530817	-64.315092
1331.121592	-64.092664
1331.712891	-63.870119
1332.304716	-63.647458
1332.897068	-63.424680
1333.489946	-63.201785
1334.083352	-62.978773
1334.677287	-62.755644
1335.271750	-62.532399
1335.866744	-62.309036
1336.462268	-62.085558
1337.058323	-61.861963
1337.654910	-61.638252
1338.252029	-61.414426
1338.849682	-61.190485
1339.447869	-60.966430
1340.046591	-60.742262
1340.645848	-60.517980
1341.245641	-60.293586
1341.845972	-60.069081
1342.446840	-59.844464
1343.048246	-59.619738
1343.650191	-59.394903
1344.252677	-59.169959
1344.855702	-58.944909
1345.459269	-58.719752
1346.063379	-58.494490
1346.668030	-58.269124
1347.273226	-58.043654
1347.878965	-57.818083
1348.485250	-57.592410
1349.092080	-57.366638
1349.699456	-57.140767
1350.307380	-56.914799
1350.915851	-56.688734
1351.524871	-56.462573
1352.134441	-56.236319
1352.744560	-56.009971
1353.355231	-55.783532
1353.966453	-55.557002
1354.578227	-55.330382
1355.190555	-55.103675
1355.803436	-54.876880
1356.416872	-54.649999
1357.030863	-54.423033
1357.645411	-54.195984
1358.260515	-53.968852
1358.876177	-53.741639
1359.492397	-53.514347
1360.109176	-53.286975
1360.726516	-53.059525
1361.344416	-52.831999
1361.962877	-52.604397
1362.581901	-52.376722
1363.201487	-52.148973
1363.821637	-51.921151
1364.442352	-51.693260
1365.063632	-51.465298
1365.685478	-51.237268
1366.307891	-51.009170
1366.930871	-50.781007
1367.554420	-50.552778
1368.178538	-50.324485
1368.803226	-50.096130
1369.428485	-49.867713
1370.054315	-49.639236
1370.680717	-49.410699
1371.307693	-49.182105
1371.935242	-48.953454
1372.563366	-48.724747
1373.192065	-48.495987
1373.821341	-48.267173
1374.451193	-48.038308
1375.081623	-47.809392
1375.712632	-47.580427
1376.344221	-47.351415
1376.976389	-47.122356
1377.609139	-46.893253
1378.242470	-46.664106
1378.876384	-46.434917
1379.510881	-46.205688
1380.145963	-45.976420
1380.781629	-45.747116
