# wavelength [m]	effective refractive index	transmission [dB/m]	effective mode area [m]	effective refractive index	transmission [dB/m]	effective mode area [m]	
7.099999999999991314e-07	1.449392247308012083e+00	-9.516224521918734733e-11	7.244444792128376545e-12	1.449518091638557049e+00	-5.695510882994370246e-11	7.353392299471934993e-12
7.299999999999991517e-07	1.448652187420687909e+00	-1.290959644406070803e-10	7.265330556334447769e-12	1.448789330404832043e+00	-6.917120917641814581e-11	7.377759823911662714e-12
7.499999999999991720e-07	1.447929050254660899e+00	-1.738856001174366925e-10	7.286332339472993226e-12	1.448078072567726027e+00	-8.360719135097475973e-11	7.402180029502764817e-12
7.699999999999991922e-07	1.447220027727335045e+00	-2.257934189894555596e-10	7.307450819178383224e-12	1.447381519870523103e+00	-1.018918044446821296e-10	7.426655993627630676e-12
7.899999999999992125e-07	1.446522679580309889e+00	-2.881588870738132557e-10	7.328686628302325550e-12	1.446697241749574925e+00	-1.247415437652584851e-10	7.451190619130170304e-12
8.099999999999992328e-07	1.445834877608104918e+00	-3.629410356194265492e-10	7.350040364058869785e-12	1.446023119561455017e+00	-1.503545634414582606e-10	7.475786645913946364e-12
8.299999999999992531e-07	1.445154759540842937e+00	-4.470086933427149683e-10	7.371512596003667758e-12	1.445357300463721906e+00	-1.808036853627724780e-10	7.500446662496430063e-12
8.499999999999992733e-07	1.444480690710209903e+00	-5.489014621253512763e-10	7.393103873014245389e-12	1.444698159078704913e+00	-2.162027001703618231e-10	7.525173117356520066e-12
8.699999999999992936e-07	1.443811232027621072e+00	-6.636916286137468639e-10	7.414814729413888950e-12	1.444044265469353050e+00	-2.573732148658992499e-10	7.549968329958808257e-12
8.899999999999993139e-07	1.443145113110124944e+00	-7.931979144111757493e-10	7.436645690361253441e-12	1.443394358262721999e+00	-3.068017478222316653e-10	7.574834501373552914e-12
9.099999999999993341e-07	1.442481209626609973e+00	-9.396416478386401138e-10	7.458597276610769238e-12	1.442747321993764986e+00	-3.613267514402817440e-10	7.599773724439639427e-12
9.299999999999993544e-07	1.441818524121291079e+00	-1.104547430622861422e-09	7.480670008733945099e-12	1.442102167926404110e+00	-4.218209420775569047e-10	7.624787993439071492e-12
9.499999999999993747e-07	1.441156169715883006e+00	-1.287873796684868959e-09	7.502864410879795844e-12	1.441458017753358911e+00	-4.914420100238915304e-10	7.649879213267697990e-12
9.699999999999993949e-07	1.440493356205746034e+00	-1.486449072988414298e-09	7.525181014141296203e-12	1.440814089689999022e+00	-5.676759535740906756e-10	7.675049208099837820e-12
9.899999999999994152e-07	1.439829378155345951e+00	-1.707552485419723197e-09	7.547620359585441946e-12	1.440169686567621010e+00	-6.544032264544961174e-10	7.700299729552106640e-12
1.009999999999999435e-06	1.439163604670463004e+00	-1.944467493174680100e-09	7.570183000997631594e-12	1.439524185603568096e+00	-7.465938965993269182e-10	7.725632464360551217e-12
1.029999999999999456e-06	1.438495470581931057e+00	-2.202099147916980354e-09	7.592869507382167169e-12	1.438877029582976919e+00	-8.483039253340443451e-10	7.751049041587549374e-12
1.049999999999999476e-06	1.437824468822265001e+00	-2.476840864923343442e-09	7.615680465257365357e-12	1.438227719233521995e+00	-9.577878799444706672e-10	7.776551039379731805e-12
1.069999999999999496e-06	1.437150143813870962e+00	-2.771094301753999181e-09	7.638616480776075398e-12	1.437575806611852913e+00	-1.076498519759916182e-09	7.802139991299674850e-12
1.089999999999999517e-06	1.436472085718093927e+00	-3.077194983703309993e-09	7.661678181700044500e-12	1.436920889350947972e+00	-1.202169193070375843e-09	7.827817392254526894e-12
1.109999999999999537e-06	1.435789925419242996e+00	-3.405927467004424704e-09	7.684866219251463088e-12	1.436262605642560031e+00	-1.333477806919403205e-09	7.853584704046522756e-12
1.129999999999999557e-06	1.435103330138020938e+00	-3.736046171064784766e-09	7.708181269862278936e-12	1.435600629849135945e+00	-1.476408977566970111e-09	7.879443360568934864e-12
1.149999999999999577e-06	1.434411999585704978e+00	-4.083427783308939447e-09	7.731624036839069398e-12	1.434934668656570933e+00	-1.623647799013942388e-09	7.905394772670856530e-12
1.169999999999999598e-06	1.433715662584164052e+00	-4.436512910387631262e-09	7.755195251958336770e-12	1.434264457692866923e+00	-1.774331680341574567e-09	7.931440332714148021e-12
1.189999999999999618e-06	1.433014074088311052e+00	-4.797295299341554016e-09	7.778895677005668457e-12	1.433589758549290938e+00	-1.934194030505166934e-09	7.957581418843842102e-12
1.209999999999999638e-06	1.432307012557245907e+00	2.220460424479922645e-11	7.802726105247166886e-12	1.432910356150260967e+00	2.583433282895488123e-12	7.983819399011070701e-12
1.229999999999999658e-06	1.431594277628120970e+00	3.277749058813385769e-12	7.826687362975862039e-12	1.432226056426016969e+00	1.779184175790450325e-12	8.010155634662313061e-12
1.249999999999999679e-06	1.430875688053711015e+00	2.471378431275732365e-11	7.850780310815773006e-12	1.431536684249014035e+00	5.284514516711692524e-13	8.036591484372948142e-12
1.269999999999999699e-06	1.430151079870034092e+00	-8.162549840647969609e-12	7.875005845216007806e-12	1.430842081600403048e+00	-1.712211633242064136e-11	8.063128307102089156e-12
1.289999999999999719e-06	1.429420304765262051e+00	-3.743519225161473636e-12	7.899364899828901223e-12	1.430142105937804997e+00	-4.167823310445306986e-12	8.089767465336348118e-12
1.309999999999999740e-06	1.428683228625144075e+00	2.775527314224802169e-11	7.923858446899201633e-12	1.429436628739626958e+00	2.272630540420185627e-11	8.116510328037705590e-12
1.329999999999999760e-06	1.427939730233465099e+00	5.376125626031247375e-12	7.948487498650186605e-12	1.428725534204396963e+00	5.043432650073398510e-13	8.143358273426391839e-12
1.349999999999999780e-06	1.427189700109068093e+00	-9.091197190940629756e-12	7.973253108669141960e-12	1.428008718086668072e+00	-7.854929378816902532e-12	8.170312691611544134e-12
1.369999999999999800e-06	1.426433039463331109e+00	4.199838982312568692e-11	7.998156373296908878e-12	1.427286086653362984e+00	-2.317761065861443722e-12	8.197374987081039773e-12
1.389999999999999821e-06	1.425669659264175104e+00	2.968971404014112290e-11	8.023198433023835192e-12	1.426557555746633899e+00	1.368284242290303583e-11	8.224546581062224320e-12
1.409999999999999841e-06	1.424899479394369894e+00	-5.760072606880965174e-11	8.048380473894484778e-12	1.425823049940988962e+00	4.212182373902715523e-12	8.251828913763121928e-12
1.429999999999999861e-06	1.424122427893572906e+00	-7.518546892469971914e-09	8.073703728991753057e-12	1.425082501784131983e+00	-3.502771981565000927e-09	8.279223446457266528e-12
1.449999999999999881e-06	1.423338440274763972e+00	-7.397488597257115648e-09	8.099169479603824970e-12	1.424335851112157103e+00	-3.532829104394346766e-09	8.306731663694041513e-12
1.469999999999999902e-06	1.422547458906940898e+00	1.184772725405752414e-11	8.124779056978271239e-12	1.423583044430966060e+00	7.830339028405633219e-12	8.334355075021347991e-12
1.489999999999999922e-06	1.421749432456929085e+00	1.576675407814338162e-12	8.150533843837829379e-12	1.422824034356755085e+00	-7.996203352667216937e-12	8.362095216803288942e-12
1.509999999999999942e-06	1.420944315383994017e+00	1.290173717499726390e-11	8.176435275473127058e-12	1.422058779109260040e+00	-1.765008562036067864e-11	8.389953654251778118e-12
1.529999999999999963e-06	1.420132067481707949e+00	3.695302851830624453e-12	8.202484841538801397e-12	1.421287242052188038e+00	-1.809512274617685332e-11	8.417931982924192548e-12
1.549999999999999983e-06	1.419312653462168061e+00	-5.277100770355247834e-09	8.228684087605958654e-12	1.420509391275968980e+00	-3.141357958227569504e-09	8.446031830335066103e-12
1.570000000000000003e-06	1.418486042578217976e+00	-3.968111092138249327e-11	8.255034616195576458e-12	1.419725199218422995e+00	1.520840847498526074e-11	8.474254857854649953e-12
1.590000000000000023e-06	1.417652208279867931e+00	-3.095298302153771213e-11	8.281538089371870121e-12	1.418934642319578998e+00	1.316306991845037334e-12	8.502602761555123177e-12
1.610000000000000044e-06	1.416811127901427936e+00	1.978703528616181905e-11	8.308196229312575515e-12	1.418137700707142068e+00	-3.462899932394234617e-12	8.531077274329824647e-12
1.630000000000000064e-06	1.415962782376424922e+00	2.203488261068670964e-11	8.335010820442144469e-12	1.417334357909656894e+00	1.426047457536659726e-11	8.559680166969288987e-12
1.650000000000000084e-06	1.415107155977489928e+00	7.841910958004250556e-12	8.361983710977989290e-12	1.416524600594585959e+00	-1.751556193877595078e-11	8.588413249589834347e-12
1.670000000000000104e-06	1.414244236078888051e+00	-5.546377640289975001e-11	8.389116814608058361e-12	1.415708418328949891e+00	8.902671171210822477e-12	8.617278372954639307e-12
1.690000000000000125e-06	1.413374012939506041e+00	-1.039930739932309823e-11	8.416412112198615136e-12	1.414885803360337979e+00	-2.847176844999513251e-12	8.646277429757058670e-12
1.710000000000000145e-06	1.412496479504389946e+00	2.097797970734954343e-11	8.443871653533668109e-12	1.414056750416408992e+00	-4.299936173363235917e-12	8.675412355868262241e-12
1.730000000000000165e-06	1.411611631223101959e+00	8.228606272091403031e-12	8.471497559087428222e-12	1.413221256521101088e+00	4.352974184019356232e-12	8.704685131553828484e-12
1.750000000000000186e-06	1.410719465883327972e+00	3.129724792687416323e-11	8.499292021830365652e-12	1.412379320826032014e+00	-4.654326517321933893e-12	8.734097782660600069e-12
1.770000000000000206e-06	1.409819983458401094e+00	-7.157383105937458447e-11	8.527257309071793392e-12	1.411530944455716918e+00	2.641871527361349670e-11	8.763652381776877381e-12
1.790000000000000226e-06	1.408913185967453963e+00	2.285552528471931904e-11	8.555395764338953419e-12	1.410676130365327019e+00	3.280545608455237461e-11	8.793351049368790196e-12
1.810000000000000246e-06	1.407999077347074968e+00	-1.922820751938183401e-11	8.583709809294990042e-12	1.409814883209860925e+00	4.028960155257764664e-12	8.823195954894524510e-12
1.830000000000000267e-06	1.407077663333488049e+00	-1.116787639016797837e-11	8.612201945697164288e-12	1.408947209223758046e+00	-1.825520110562536680e-11	8.853189317898674411e-12
1.850000000000000287e-06	1.406148951354301069e+00	-5.443049952247482730e-11	8.640874757396632509e-12	1.408073116109965106e+00	7.625515874449827520e-11	8.883333409089386331e-12
1.870000000000000307e-06	1.405212950429036045e+00	1.938683938754401533e-11	8.669730912382201259e-12	1.407192612937715914e+00	2.959231696601990304e-11	8.913630551399576844e-12
1.890000000000000327e-06	1.404269671077654991e+00	7.980966978614982054e-11	8.698773164868716006e-12	1.406305710048193047e+00	-6.983659512784520518e-12	8.944083121034411506e-12
1.910000000000000348e-06	1.403319125236446085e+00	-4.497044707547882249e-11	8.728004357432780084e-12	1.405412418967453059e+00	2.699441877114227287e-11	8.974693548506565016e-12
1.930000000000000156e-06	1.402361326180622925e+00	1.902039495025538508e-11	8.757427423197173894e-12	1.404512752325979941e+00	2.752190589542208912e-12	9.005464319661815314e-12
1.950000000000000388e-06	1.401396288453087058e+00	-1.062688868143022684e-11	8.787045388065971240e-12	1.403606723784283972e+00	-1.644515845089761747e-11	9.036397976695585545e-12
1.970000000000000620e-06	1.400424027798871096e+00	1.040123605423129900e-11	8.816861373012252718e-12	1.402694347964094090e+00	-3.081315553888648819e-11	9.067497119162637553e-12
1.990000000000000429e-06	1.399444561104753904e+00	6.055012162483868869e-12	8.846878596420274079e-12	1.401775640384617105e+00	-5.442808870380841530e-11	9.098764404981367690e-12
2.010000000000000237e-06	1.398457906343687052e+00	-1.016208284255042986e-11	8.877100376484524267e-12	1.400850617403508025e+00	-4.926315079288734798e-11	9.130202551434525728e-12
2.030000000000000469e-06	1.397464082523607987e+00	2.069639608711733153e-11	8.907530133667432500e-12	1.399919296162116078e+00	-1.773880374728394362e-11	9.161814336166857679e-12
2.050000000000000701e-06	1.396463109640287970e+00	-2.469594425476662415e-11	8.938171393217947441e-12	1.398981694534682907e+00	-2.918247779293362081e-11	9.193602598182620995e-12
2.070000000000000510e-06	1.395455008633945004e+00	-7.023679102646546298e-12	8.969027787752982101e-12	1.398037831081176074e+00	-8.620123223528388409e-12	9.225570238842985051e-12
2.090000000000000318e-06	1.394439801349260932e+00	-3.978815127000685568e-12	9.000103059904449956e-12	1.397087725003451020e+00	-8.771040472044279730e-12	9.257720222865528674e-12
2.110000000000000550e-06	1.393417510498595080e+00	-4.303841699621973753e-11	9.031401065034281746e-12	1.396131396104481004e+00	3.447663558407627226e-11	9.290055579326951057e-12
2.130000000000000782e-06	1.392388159628098920e+00	-7.332263891944107735e-12	9.062925774018986837e-12	1.395168864750411908e+00	-9.176733037311344450e-11	9.322579402670509898e-12
2.150000000000000591e-06	1.391351773086584087e+00	-3.096696576980283840e-11	9.094681276106717280e-12	1.394200151835240042e+00	-1.393679806146502055e-10	9.355294853718975142e-12
2.170000000000000399e-06	1.390308375996814005e+00	-7.282842109338126769e-11	9.126671781849892891e-12	1.393225278747840079e+00	-9.548288410182336165e-11	9.388205160695642893e-12
2.190000000000000631e-06	1.389257994229174953e+00	-1.025880488755500010e-10	9.158901626114721810e-12	1.392244267341240072e+00	-1.367074011343450959e-10	9.421313620253139683e-12
2.210000000000000863e-06	1.388200654377427901e+00	-1.014053012377946096e-10	9.191375271171568269e-12	1.391257139903913975e+00	-1.885496457381911324e-10	9.454623598513130343e-12
2.230000000000000672e-06	1.387136383736462975e+00	-1.884189793664674997e-10	9.224097309867397038e-12	1.390263919132938009e+00	-2.191733109312281096e-10	9.488138532116132983e-12
2.250000000000000481e-06	1.386065210281856919e+00	-1.037409023618418345e-10	9.257072468884546769e-12	1.389264628108884958e+00	-2.362428714175828094e-10	9.521861929285488136e-12
2.270000000000000713e-06	1.384987162651144965e+00	-6.200205352069956330e-08	9.290305611939749233e-12	1.388259290272316981e+00	8.395529732486863935e-08	9.555797371221851173e-12
2.290000000000000945e-06	1.383902270126611045e+00	-6.704350165974746868e-08	9.323801743813170983e-12	1.387247929401697943e+00	8.776924420248956059e-08	9.589948511923560021e-12
2.310000000000000753e-06	1.382810562619581018e+00	-7.241173579814852361e-08	9.357566012997066685e-12	1.386230569592747042e+00	9.168526320828717973e-08	9.624319081205501889e-12
2.330000000000000562e-06	1.381712070655986002e+00	-7.814521958530114591e-08	9.391603715913001138e-12	1.385207235238929968e+00	9.568932144900127683e-08	9.658912884554876883e-12
2.350000000000000794e-06	1.380606825363219103e+00	-8.424899549107235126e-08	9.425920300496048721e-12	1.384177951013181973e+00	9.979438334255081744e-08	9.693733804596823112e-12
2.370000000000001026e-06	1.379494858458087947e+00	-9.080213837093334892e-08	9.460521370028895083e-12	1.383142741850629021e+00	1.040336873269704339e-07	9.728785802262621892e-12
2.390000000000000834e-06	1.378376202235852999e+00	-9.776404859317110134e-08	9.495412687082490041e-12	1.382101632932321911e+00	1.082528330063936161e-07	9.764072917982039828e-12
2.410000000000000643e-06	1.377250889560236002e+00	-1.052571716427829022e-07	9.530600177567788242e-12	1.381054649669845036e+00	1.125638405138018114e-07	9.799599272898995123e-12
2.430000000000000875e-06	1.376118953854309934e+00	-1.132869627231389684e-07	9.566089934900639097e-12	1.380001817690742927e+00	1.168700273440551273e-07	9.835369070113637120e-12
2.450000000000001107e-06	1.374980429092232947e+00	-1.219280448738184641e-07	9.601888224283832619e-12	1.378943162824713076e+00	1.210992936274871644e-07	9.871386595952205872e-12
2.470000000000000915e-06	1.373835349791745930e+00	-1.313405548045697907e-07	9.638001487110811904e-12	1.377878711090493091e+00	1.252828758587182374e-07	9.907656221266022355e-12
2.490000000000000724e-06	1.372683751007365061e+00	-1.415791930334043179e-07	9.674436345493884374e-12	1.376808488683374021e+00	1.292055004736393159e-07	9.944182402761829155e-12
